# 10 seconds đầu
relative_time_s,packet_id,device_timestamp_us,emg
0.000000,0,12,931
0.000404,1,416,931
0.000736,2,748,932
0.001068,3,1080,931
0.001400,4,1412,932
0.001724,5,1736,931
0.002060,6,2072,931
0.002392,7,2404,931
0.002780,8,2792,931
0.003456,9,3468,931
0.004128,10,4140,932
0.004804,11,4816,931
0.005480,12,5492,932
0.006156,13,6168,932
0.006828,14,6840,932
0.007504,15,7516,931
0.008184,16,8196,931
0.008856,17,8868,932
0.009528,18,9540,931
0.010204,19,10216,932
0.010880,20,10892,932
0.011556,21,11568,931
0.012228,22,12240,931
0.012904,23,12916,931
0.013580,24,13592,932
0.014256,25,14268,931
0.014928,26,14940,932
0.015604,27,15616,932
0.016280,28,16292,931
0.016956,29,16968,931
0.017628,30,17640,932
0.018304,31,18316,931
0.018980,32,18992,932
0.019656,33,19668,932
0.020328,34,20340,931
0.021004,35,21016,932
0.021680,36,21692,932
0.022356,37,22368,931
0.023028,38,23040,932
0.023704,39,23716,932
0.024380,40,24392,932
0.025056,41,25068,932
0.025728,42,25740,932
0.026404,43,26416,932
0.027080,44,27092,932
0.027756,45,27768,931
0.028428,46,28440,932
0.029104,47,29116,931
0.029780,48,29792,932
0.030456,49,30468,932
0.031128,50,31140,932
0.031804,51,31816,932
0.032480,52,32492,932
0.033156,53,33168,932
0.033828,54,33840,931
0.034504,55,34516,932
0.035180,56,35192,932
0.035856,57,35868,931
0.036528,58,36540,932
0.037204,59,37216,932
0.037884,60,37896,931
0.038556,61,38568,931
0.039228,62,39240,932
0.039904,63,39916,931
0.040580,64,40592,931
0.041256,65,41268,932
0.041928,66,41940,931
0.042604,67,42616,931
0.043280,68,43292,932
0.043956,69,43968,931
0.044628,70,44640,931
0.045304,71,45316,931
0.045980,72,45992,932
0.046656,73,46668,932
0.047328,74,47340,931
0.048004,75,48016,931
0.048680,76,48692,931
0.049356,77,49368,932
0.050028,78,50040,931
0.050704,79,50716,931
0.051380,80,51392,932
0.052056,81,52068,932
0.052728,82,52740,932
0.053404,83,53416,932
0.054080,84,54092,931
0.054756,85,54768,932
0.055428,86,55440,932
0.056104,87,56116,932
0.056780,88,56792,931
0.057456,89,57468,932
0.058128,90,58140,931
0.058804,91,58816,932
0.059480,92,59492,932
0.060156,93,60168,932
0.060828,94,60840,932
0.061504,95,61516,932
0.062180,96,62192,931
0.062856,97,62868,931
0.063528,98,63540,932
0.064204,99,64216,932
0.064880,100,64892,932
0.065556,101,65568,932
0.066228,102,66240,931
0.066904,103,66916,931
0.067584,104,67596,932
0.068256,105,68268,931
0.068928,106,68940,931
0.069604,107,69616,931
0.070280,108,70292,932
0.070956,109,70968,932
0.071628,110,71640,932
0.072304,111,72316,931
0.072980,112,72992,932
0.073656,113,73668,932
0.074328,114,74340,932
0.075004,115,75016,932
0.075680,116,75692,932
0.076356,117,76368,932
0.077028,118,77040,932
0.077704,119,77716,932
0.078380,120,78392,931
0.079056,121,79068,932
0.079728,122,79740,931
0.080404,123,80416,931
0.081080,124,81092,932
0.081756,125,81768,931
0.082428,126,82440,932
0.083104,127,83116,932
0.083780,128,83792,932
0.084456,129,84468,932
0.085128,130,85140,931
0.085804,131,85816,932
0.086480,132,86492,931
0.087156,133,87168,932
0.087828,134,87840,931
0.088504,135,88516,931
0.089180,136,89192,932
0.089856,137,89868,932
0.090528,138,90540,932
0.091204,139,91216,931
0.091880,140,91892,931
0.092556,141,92568,932
0.093228,142,93240,931
0.093904,143,93916,931
0.094580,144,94592,932
0.095256,145,95268,932
0.095928,146,95940,932
0.096604,147,96616,931
0.097284,148,97296,932
0.097956,149,97968,932
0.098628,150,98640,932
0.099304,151,99316,931
0.099980,152,99992,931
0.100656,153,100668,931
0.101328,154,101340,932
0.102004,155,102016,932
0.102680,156,102692,931
0.103356,157,103368,931
0.104028,158,104040,932
0.104704,159,104716,932
0.105380,160,105392,931
0.106056,161,106068,932
0.106728,162,106740,932
0.107404,163,107416,932
0.108080,164,108092,932
0.108756,165,108768,931
0.109428,166,109440,931
0.110104,167,110116,932
0.110780,168,110792,932
0.111456,169,111468,932
0.112128,170,112140,931
0.112804,171,112816,931
0.113480,172,113492,931
0.114156,173,114168,932
0.114828,174,114840,931
0.115504,175,115516,931
0.116180,176,116192,932
0.116856,177,116868,932
0.117528,178,117540,932
0.118204,179,118216,932
0.118880,180,118892,932
0.119556,181,119568,931
0.120228,182,120240,932
0.120904,183,120916,932
0.121580,184,121592,931
0.122256,185,122268,931
0.122928,186,122940,932
0.123604,187,123616,932
0.124280,188,124292,931
0.124956,189,124968,932
0.125628,190,125640,932
0.126304,191,126316,932
0.126984,192,126996,932
0.127656,193,127668,932
0.128328,194,128340,931
0.129004,195,129016,932
0.129680,196,129692,931
0.130356,197,130368,931
0.131028,198,131040,932
0.131704,199,131716,931
0.132380,200,132392,931
0.133056,201,133068,932
0.133728,202,133740,931
0.134404,203,134416,931
0.135080,204,135092,932
0.135756,205,135768,932
0.136428,206,136440,931
0.137104,207,137116,931
0.137780,208,137792,932
0.138456,209,138468,932
0.139128,210,139140,931
0.139804,211,139816,931
0.140480,212,140492,932
0.141156,213,141168,932
0.141828,214,141840,932
0.142504,215,142516,932
0.143180,216,143192,931
0.143856,217,143868,932
0.144528,218,144540,931
0.145204,219,145216,932
0.145880,220,145892,932
0.146556,221,146568,932
0.147228,222,147240,931
0.147904,223,147916,931
0.148580,224,148592,932
0.149256,225,149268,932
0.149928,226,149940,932
0.150604,227,150616,932
0.151280,228,151292,932
0.151956,229,151968,931
0.152628,230,152640,931
0.153304,231,153316,932
0.153980,232,153992,931
0.154656,233,154668,932
0.155328,234,155340,932
0.156004,235,156016,932
0.156680,236,156692,932
0.157356,237,157368,932
0.158028,238,158040,931
0.158704,239,158716,931
0.159380,240,159392,931
0.160056,241,160068,932
0.160728,242,160740,931
0.161404,243,161416,932
0.162080,244,162092,932
0.162756,245,162768,932
0.163428,246,163440,932
0.164104,247,164116,932
0.164780,248,164792,931
0.165456,249,165468,931
0.166128,250,166140,931
0.166804,251,166816,932
0.167480,252,167492,931
0.168156,253,168168,932
0.168828,254,168840,932
0.169504,255,169516,932
0.170180,256,170192,932
0.170856,257,170868,932
0.171528,258,171540,932
0.172204,259,172216,932
0.172880,260,172892,931
0.173556,261,173568,932
0.174228,262,174240,932
0.174904,263,174916,932
0.175580,264,175592,932
0.176256,265,176268,932
0.176928,266,176940,931
0.177604,267,177616,932
0.178280,268,178292,932
0.178956,269,178968,932
0.179628,270,179640,932
0.180304,271,180316,931
0.180980,272,180992,932
0.181656,273,181668,932
0.182328,274,182340,932
0.183004,275,183016,931
0.183680,276,183692,932
0.184356,277,184368,931
0.185028,278,185040,931
0.185704,279,185716,932
0.186380,280,186392,932
0.187056,281,187068,931
0.187728,282,187740,932
0.188412,283,188424,931
0.189080,284,189092,932
0.189756,285,189768,931
0.190428,286,190440,931
0.191104,287,191116,932
0.191780,288,191792,931
0.192456,289,192468,932
0.193128,290,193140,932
0.193804,291,193816,931
0.194480,292,194492,931
0.195156,293,195168,932
0.195828,294,195840,931
0.196504,295,196516,932
0.197180,296,197192,931
0.197856,297,197868,931
0.198528,298,198540,931
0.199204,299,199216,931
0.199880,300,199892,932
0.200556,301,200568,931
0.201228,302,201240,932
0.201904,303,201916,931
0.202580,304,202592,931
0.203256,305,203268,931
0.203928,306,203940,931
0.204604,307,204616,932
0.205280,308,205292,932
0.205956,309,205968,931
0.206628,310,206640,931
0.207304,311,207316,932
0.207980,312,207992,931
0.208656,313,208668,932
0.209328,314,209340,931
0.210004,315,210016,932
0.210680,316,210692,932
0.211356,317,211368,931
0.212028,318,212040,932
0.212704,319,212716,932
0.213380,320,213392,932
0.214056,321,214068,932
0.214728,322,214740,931
0.215404,323,215416,931
0.216080,324,216092,932
0.216756,325,216768,932
0.217428,326,217440,932
0.218112,327,218124,931
0.218780,328,218792,932
0.219456,329,219468,931
0.220128,330,220140,931
0.220804,331,220816,932
0.221480,332,221492,932
0.222156,333,222168,932
0.222828,334,222840,932
0.223504,335,223516,931
0.224180,336,224192,932
0.224856,337,224868,932
0.225528,338,225540,932
0.226204,339,226216,932
0.226880,340,226892,931
0.227556,341,227568,931
0.228228,342,228240,931
0.228904,343,228916,932
0.229580,344,229592,932
0.230256,345,230268,931
0.230928,346,230940,931
0.231604,347,231616,931
0.232280,348,232292,932
0.232956,349,232968,932
0.233628,350,233640,931
0.234304,351,234316,932
0.234980,352,234992,931
0.235656,353,235668,932
0.236328,354,236340,931
0.237004,355,237016,931
0.237680,356,237692,931
0.238356,357,238368,932
0.239028,358,239040,931
0.239704,359,239716,932
0.240380,360,240392,932
0.241056,361,241068,932
0.241728,362,241740,931
0.242404,363,242416,931
0.243080,364,243092,932
0.243756,365,243768,932
0.244428,366,244440,931
0.245104,367,245116,931
0.245780,368,245792,932
0.246456,369,246468,931
0.247128,370,247140,932
0.247812,371,247824,931
0.248480,372,248492,931
0.249156,373,249168,932
0.249828,374,249840,931
0.250504,375,250516,931
0.251180,376,251192,931
0.251856,377,251868,931
0.252528,378,252540,932
0.253204,379,253216,932
0.253880,380,253892,932
0.254556,381,254568,932
0.255228,382,255240,932
0.255904,383,255916,931
0.256580,384,256592,932
0.257256,385,257268,932
0.257928,386,257940,932
0.258604,387,258616,932
0.259280,388,259292,932
0.259956,389,259968,931
0.260628,390,260640,932
0.261304,391,261316,932
0.261980,392,261992,931
0.262656,393,262668,931
0.263328,394,263340,932
0.264004,395,264016,932
0.264680,396,264692,932
0.265356,397,265368,931
0.266028,398,266040,932
0.266704,399,266716,931
0.267380,400,267392,932
0.268056,401,268068,932
0.268728,402,268740,932
0.269404,403,269416,932
0.270080,404,270092,932
0.270756,405,270768,932
0.271428,406,271440,932
0.272104,407,272116,932
0.272780,408,272792,932
0.273456,409,273468,932
0.274128,410,274140,932
0.274804,411,274816,932
0.275480,412,275492,931
0.276156,413,276168,932
0.276828,414,276840,932
0.277512,415,277524,931
0.278180,416,278192,931
0.278856,417,278868,931
0.279528,418,279540,932
0.280204,419,280216,931
0.280880,420,280892,931
0.281556,421,281568,931
0.282228,422,282240,932
0.282904,423,282916,931
0.283580,424,283592,932
0.284256,425,284268,931
0.284928,426,284940,931
0.285604,427,285616,931
0.286280,428,286292,932
0.286956,429,286968,932
0.287628,430,287640,931
0.288304,431,288316,931
0.288980,432,288992,931
0.289656,433,289668,932
0.290328,434,290340,931
0.291004,435,291016,932
0.291680,436,291692,932
0.292356,437,292368,932
0.293028,438,293040,932
0.293704,439,293716,932
0.294380,440,294392,932
0.295056,441,295068,932
0.295728,442,295740,932
0.296404,443,296416,932
0.297080,444,297092,931
0.297756,445,297768,932
0.298428,446,298440,931
0.299104,447,299116,932
0.299780,448,299792,932
0.300456,449,300468,931
0.301128,450,301140,931
0.301804,451,301816,932
0.302480,452,302492,931
0.303156,453,303168,932
0.303828,454,303840,931
0.304504,455,304516,931
0.305180,456,305192,932
0.305856,457,305868,931
0.306528,458,306540,932
0.307208,459,307220,931
0.307880,460,307892,932
0.308556,461,308568,932
0.309228,462,309240,932
0.309904,463,309916,932
0.310580,464,310592,932
0.311256,465,311268,932
0.311928,466,311940,931
0.312604,467,312616,932
0.313280,468,313292,932
0.313956,469,313968,931
0.314628,470,314640,932
0.315304,471,315316,932
0.315980,472,315992,932
0.316656,473,316668,931
0.317328,474,317340,932
0.318004,475,318016,932
0.318680,476,318692,931
0.319356,477,319368,932
0.320028,478,320040,931
0.320704,479,320716,931
0.321380,480,321392,932
0.322056,481,322068,931
0.322728,482,322740,932
0.323404,483,323416,932
0.324080,484,324092,932
0.324756,485,324768,932
0.325428,486,325440,932
0.326104,487,326116,931
0.326780,488,326792,932
0.327456,489,327468,932
0.328128,490,328140,931
0.328804,491,328816,931
0.329480,492,329492,931
0.330156,493,330168,931
0.330828,494,330840,932
0.331504,495,331516,931
0.332180,496,332192,932
0.332856,497,332868,932
0.333528,498,333540,931
0.334204,499,334216,932
0.334880,500,334892,932
0.335556,501,335568,932
0.336228,502,336240,932
0.336904,503,336916,931
0.337580,504,337592,932
0.338256,505,338268,932
0.338928,506,338940,932
0.339604,507,339616,932
0.340280,508,340292,932
0.340956,509,340968,932
0.341628,510,341640,931
0.342304,511,342316,932
0.342980,512,342992,932
0.343656,513,343668,932
0.344328,514,344340,931
0.345004,515,345016,932
0.345680,516,345692,932
0.346356,517,346368,931
0.347028,518,347040,932
0.347704,519,347716,932
0.348380,520,348392,932
0.349056,521,349068,932
0.349728,522,349740,931
0.350404,523,350416,931
0.351080,524,351092,932
0.351756,525,351768,932
0.352428,526,352440,932
0.353104,527,353116,931
0.353780,528,353792,932
0.354456,529,354468,932
0.355128,530,355140,932
0.355804,531,355816,931
0.356480,532,356492,932
0.357156,533,357168,932
0.357828,534,357840,932
0.358504,535,358516,931
0.359180,536,359192,932
0.359856,537,359868,931
0.360528,538,360540,931
0.361204,539,361216,931
0.361880,540,361892,932
0.362556,541,362568,931
0.363228,542,363240,931
0.363904,543,363916,932
0.364580,544,364592,932
0.365256,545,365268,931
0.365928,546,365940,931
0.366604,547,366616,931
0.367280,548,367292,932
0.367956,549,367968,931
0.368636,550,368648,932
0.369304,551,369316,932
0.369980,552,369992,931
0.370656,553,370668,932
0.371328,554,371340,931
0.372004,555,372016,931
0.372680,556,372692,932
0.373356,557,373368,931
0.374028,558,374040,932
0.374704,559,374716,931
0.375380,560,375392,932
0.376056,561,376068,932
0.376728,562,376740,932
0.377404,563,377416,931
0.378080,564,378092,931
0.378756,565,378768,932
0.379428,566,379440,932
0.380104,567,380116,932
0.380780,568,380792,931
0.381456,569,381468,932
0.382128,570,382140,932
0.382804,571,382816,932
0.383480,572,383492,931
0.384156,573,384168,932
0.384828,574,384840,931
0.385504,575,385516,932
0.386180,576,386192,931
0.386856,577,386868,931
0.387528,578,387540,931
0.388204,579,388216,932
0.388880,580,388892,932
0.389556,581,389568,931
0.390228,582,390240,931
0.390904,583,390916,931
0.391580,584,391592,932
0.392256,585,392268,931
0.392928,586,392940,931
0.393604,587,393616,932
0.394280,588,394292,932
0.394956,589,394968,931
0.395628,590,395640,932
0.396304,591,396316,931
0.396980,592,396992,931
0.397656,593,397668,932
0.398336,594,398348,932
0.399004,595,399016,931
0.399680,596,399692,932
0.400356,597,400368,932
0.401028,598,401040,931
0.401704,599,401716,931
0.402380,600,402392,931
0.403056,601,403068,932
0.403728,602,403740,932
0.404404,603,404416,932
0.405080,604,405092,931
0.405756,605,405768,931
0.406428,606,406440,932
0.407104,607,407116,931
0.407780,608,407792,931
0.408456,609,408468,931
0.409128,610,409140,931
0.409804,611,409816,932
0.410480,612,410492,932
0.411156,613,411168,931
0.411828,614,411840,931
0.412504,615,412516,931
0.413180,616,413192,932
0.413856,617,413868,932
0.414528,618,414540,931
0.415204,619,415216,932
0.415880,620,415892,932
0.416556,621,416568,932
0.417228,622,417240,931
0.417904,623,417916,931
0.418580,624,418592,932
0.419256,625,419268,932
0.419928,626,419940,932
0.420604,627,420616,932
0.421280,628,421292,932
0.421956,629,421968,932
0.422628,630,422640,932
0.423304,631,423316,931
0.423980,632,423992,932
0.424656,633,424668,932
0.425328,634,425340,931
0.426004,635,426016,931
0.426680,636,426692,932
0.427356,637,427368,931
0.428036,638,428048,931
0.428704,639,428716,932
0.429380,640,429392,931
0.430056,641,430068,931
0.430728,642,430740,932
0.431404,643,431416,932
0.432080,644,432092,932
0.432756,645,432768,931
0.433428,646,433440,932
0.434104,647,434116,932
0.434780,648,434792,932
0.435456,649,435468,932
0.436128,650,436140,932
0.436804,651,436816,931
0.437480,652,437492,932
0.438156,653,438168,931
0.438828,654,438840,931
0.439504,655,439516,931
0.440180,656,440192,931
0.440856,657,440868,932
0.441528,658,441540,932
0.442204,659,442216,932
0.442880,660,442892,931
0.443556,661,443568,931
0.444228,662,444240,932
0.444904,663,444916,932
0.445580,664,445592,931
0.446256,665,446268,932
0.446928,666,446940,931
0.447604,667,447616,932
0.448280,668,448292,932
0.448956,669,448968,931
0.449628,670,449640,931
0.450304,671,450316,932
0.450980,672,450992,931
0.451656,673,451668,932
0.452328,674,452340,931
0.453004,675,453016,931
0.453680,676,453692,932
0.454356,677,454368,932
0.455028,678,455040,931
0.455704,679,455716,932
0.456380,680,456392,931
0.457056,681,457068,931
0.457736,682,457748,932
0.458404,683,458416,932
0.459080,684,459092,932
0.459756,685,459768,932
0.460428,686,460440,931
0.461104,687,461116,931
0.461780,688,461792,932
0.462456,689,462468,932
0.463128,690,463140,932
0.463804,691,463816,932
0.464480,692,464492,932
0.465156,693,465168,932
0.465828,694,465840,931
0.466504,695,466516,932
0.467180,696,467192,932
0.467856,697,467868,932
0.468528,698,468540,932
0.469204,699,469216,932
0.469880,700,469892,931
0.470556,701,470568,931
0.471228,702,471240,932
0.471904,703,471916,931
0.472580,704,472592,932
0.473256,705,473268,932
0.473928,706,473940,932
0.474604,707,474616,932
0.475280,708,475292,932
0.475956,709,475968,932
0.476628,710,476640,931
0.477304,711,477316,931
0.477980,712,477992,932
0.478656,713,478668,931
0.479328,714,479340,931
0.480004,715,480016,932
0.480680,716,480692,931
0.481356,717,481368,932
0.482028,718,482040,932
0.482704,719,482716,931
0.483380,720,483392,931
0.484056,721,484068,932
0.484728,722,484740,932
0.485404,723,485416,932
0.486080,724,486092,931
0.486756,725,486768,931
0.487432,726,487444,932
0.488104,727,488116,932
0.488780,728,488792,932
0.489456,729,489468,932
0.490128,730,490140,931
0.490804,731,490816,932
0.491480,732,491492,932
0.492156,733,492168,932
0.492828,734,492840,932
0.493504,735,493516,931
0.494180,736,494192,931
0.494856,737,494868,931
0.495528,738,495540,932
0.496204,739,496216,931
0.496880,740,496892,932
0.497556,741,497568,932
0.498228,742,498240,932
0.498904,743,498916,931
0.499580,744,499592,931
0.500256,745,500268,931
0.500928,746,500940,932
0.501604,747,501616,931
0.502280,748,502292,931
0.502956,749,502968,932
0.503628,750,503640,932
0.504304,751,504316,931
0.504980,752,504992,932
0.505656,753,505668,932
0.506328,754,506340,932
0.507004,755,507016,932
0.507680,756,507692,931
0.508356,757,508368,931
0.509028,758,509040,932
0.509704,759,509716,931
0.510380,760,510392,932
0.511056,761,511068,931
0.511728,762,511740,932
0.512404,763,512416,932
0.513080,764,513092,931
0.513756,765,513768,932
0.514428,766,514440,932
0.515104,767,515116,931
0.515780,768,515792,931
0.516456,769,516468,931
0.517128,770,517140,931
0.517804,771,517816,932
0.518480,772,518492,931
0.519156,773,519168,931
0.519828,774,519840,932
0.520504,775,520516,932
0.521180,776,521192,931
0.521856,777,521868,932
0.522528,778,522540,932
0.523204,779,523216,932
0.523880,780,523892,932
0.524556,781,524568,931
0.525228,782,525240,931
0.525904,783,525916,931
0.526580,784,526592,931
0.527256,785,527268,932
0.527928,786,527940,932
0.528604,787,528616,931
0.529280,788,529292,932
0.529956,789,529968,931
0.530628,790,530640,932
0.531304,791,531316,932
0.531980,792,531992,931
0.532656,793,532668,932
0.533328,794,533340,932
0.534004,795,534016,931
0.534680,796,534692,932
0.535356,797,535368,932
0.536028,798,536040,932
0.536704,799,536716,932
0.537380,800,537392,931
0.538056,801,538068,932
0.538728,802,538740,932
0.539404,803,539416,932
0.540080,804,540092,931
0.540756,805,540768,931
0.541428,806,541440,931
0.542104,807,542116,932
0.542780,808,542792,931
0.543456,809,543468,932
0.544128,810,544140,931
0.544804,811,544816,932
0.545480,812,545492,932
0.546156,813,546168,932
0.546828,814,546840,932
0.547504,815,547516,931
0.548180,816,548192,932
0.548860,817,548872,932
0.549528,818,549540,932
0.550204,819,550216,931
0.550880,820,550892,931
0.551556,821,551568,932
0.552228,822,552240,932
0.552904,823,552916,932
0.553580,824,553592,932
0.554256,825,554268,932
0.554928,826,554940,931
0.555604,827,555616,931
0.556280,828,556292,932
0.556956,829,556968,931
0.557628,830,557640,932
0.558304,831,558316,932
0.558980,832,558992,931
0.559656,833,559668,932
0.560328,834,560340,932
0.561004,835,561016,931
0.561680,836,561692,931
0.562356,837,562368,932
0.563028,838,563040,932
0.563704,839,563716,932
0.564380,840,564392,931
0.565056,841,565068,932
0.565728,842,565740,932
0.566404,843,566416,932
0.567080,844,567092,931
0.567756,845,567768,931
0.568428,846,568440,931
0.569104,847,569116,931
0.569780,848,569792,931
0.570456,849,570468,932
0.571128,850,571140,932
0.571804,851,571816,932
0.572480,852,572492,932
0.573156,853,573168,932
0.573828,854,573840,932
0.574504,855,574516,931
0.575180,856,575192,932
0.575856,857,575868,932
0.576528,858,576540,932
0.577204,859,577216,931
0.577880,860,577892,931
0.578560,861,578572,932
0.579228,862,579240,932
0.579904,863,579916,931
0.580580,864,580592,931
0.581256,865,581268,931
0.581928,866,581940,932
0.582604,867,582616,931
0.583280,868,583292,931
0.583956,869,583968,932
0.584628,870,584640,931
0.585304,871,585316,931
0.585980,872,585992,931
0.586656,873,586668,932
0.587328,874,587340,931
0.588004,875,588016,932
0.588680,876,588692,931
0.589356,877,589368,932
0.590028,878,590040,932
0.590704,879,590716,931
0.591380,880,591392,932
0.592056,881,592068,932
0.592728,882,592740,931
0.593404,883,593416,932
0.594080,884,594092,932
0.594756,885,594768,931
0.595428,886,595440,932
0.596104,887,596116,931
0.596780,888,596792,932
0.597456,889,597468,932
0.598128,890,598140,932
0.598804,891,598816,932
0.599480,892,599492,932
0.600156,893,600168,932
0.600828,894,600840,932
0.601504,895,601516,932
0.602180,896,602192,932
0.602856,897,602868,931
0.603528,898,603540,932
0.604204,899,604216,932
0.604880,900,604892,932
0.605556,901,605568,932
0.606228,902,606240,931
0.606904,903,606916,932
0.607580,904,607592,932
0.608260,905,608272,932
0.608928,906,608940,932
0.609604,907,609616,931
0.610280,908,610292,932
0.610956,909,610968,932
0.611628,910,611640,931
0.612304,911,612316,931
0.612980,912,612992,931
0.613656,913,613668,932
0.614328,914,614340,932
0.615004,915,615016,931
0.615680,916,615692,932
0.616356,917,616368,931
0.617028,918,617040,932
0.617704,919,617716,932
0.618380,920,618392,931
0.619056,921,619068,931
0.619728,922,619740,931
0.620404,923,620416,932
0.621080,924,621092,932
0.621756,925,621768,932
0.622428,926,622440,931
0.623104,927,623116,931
0.623780,928,623792,931
0.624456,929,624468,932
0.625128,930,625140,932
0.625804,931,625816,931
0.626480,932,626492,931
0.627156,933,627168,931
0.627828,934,627840,932
0.628504,935,628516,932
0.629180,936,629192,932
0.629856,937,629868,931
0.630528,938,630540,931
0.631204,939,631216,932
0.631880,940,631892,931
0.632556,941,632568,932
0.633228,942,633240,932
0.633904,943,633916,931
0.634580,944,634592,932
0.635256,945,635268,932
0.635928,946,635940,931
0.636604,947,636616,932
0.637280,948,637292,932
0.637960,949,637972,932
0.638628,950,638640,932
0.639304,951,639316,932
0.639980,952,639992,932
0.640656,953,640668,932
0.641328,954,641340,932
0.642004,955,642016,932
0.642680,956,642692,931
0.643356,957,643368,932
0.644028,958,644040,932
0.644704,959,644716,932
0.645380,960,645392,931
0.646056,961,646068,932
0.646728,962,646740,932
0.647404,963,647416,932
0.648080,964,648092,932
0.648756,965,648768,932
0.649428,966,649440,932
0.650104,967,650116,932
0.650780,968,650792,931
0.651456,969,651468,932
0.652128,970,652140,931
0.652804,971,652816,932
0.653480,972,653492,932
0.654156,973,654168,932
0.654828,974,654840,931
0.655504,975,655516,931
0.656180,976,656192,931
0.656856,977,656868,932
0.657528,978,657540,931
0.658204,979,658216,932
0.658880,980,658892,931
0.659556,981,659568,931
0.660228,982,660240,932
0.660904,983,660916,932
0.661580,984,661592,932
0.662256,985,662268,931
0.662928,986,662940,932
0.663604,987,663616,931
0.664280,988,664292,931
0.664956,989,664968,931
0.665628,990,665640,932
0.666304,991,666316,932
0.666980,992,666992,932
0.667656,993,667668,931
0.668328,994,668340,932
0.669004,995,669016,932
0.669680,996,669692,931
0.670356,997,670368,932
0.671028,998,671040,932
0.671704,999,671716,931
0.672380,1000,672392,932
0.673056,1001,673068,932
0.673728,1002,673740,932
0.674404,1003,674416,932
0.675080,1004,675092,931
0.675756,1005,675768,932
0.676428,1006,676440,931
0.677104,1007,677116,932
0.677780,1008,677792,931
0.678456,1009,678468,932
0.679128,1010,679140,931
0.679804,1011,679816,931
0.680480,1012,680492,931
0.681156,1013,681168,932
0.681828,1014,681840,932
0.682504,1015,682516,932
0.683180,1016,683192,931
0.683856,1017,683868,932
0.684528,1018,684540,931
0.685204,1019,685216,931
0.685880,1020,685892,932
0.686556,1021,686568,932
0.687228,1022,687240,932
0.687904,1023,687916,932
0.688580,1024,688592,932
0.689256,1025,689268,932
0.689928,1026,689940,932
0.690604,1027,690616,932
0.691280,1028,691292,932
0.691956,1029,691968,931
0.692628,1030,692640,932
0.693304,1031,693316,932
0.693980,1032,693992,932
0.694656,1033,694668,932
0.695328,1034,695340,932
0.696004,1035,696016,931
0.696680,1036,696692,932
0.697356,1037,697368,932
0.698028,1038,698040,932
0.698704,1039,698716,931
0.699384,1040,699396,932
0.700056,1041,700068,932
0.700728,1042,700740,932
0.701404,1043,701416,932
0.702080,1044,702092,931
0.702756,1045,702768,931
0.703428,1046,703440,932
0.704104,1047,704116,931
0.704780,1048,704792,932
0.705456,1049,705468,931
0.706128,1050,706140,931
0.706804,1051,706816,932
0.707480,1052,707492,931
0.708156,1053,708168,932
0.708828,1054,708840,931
0.709504,1055,709516,931
0.710180,1056,710192,932
0.710856,1057,710868,932
0.711528,1058,711540,931
0.712204,1059,712216,932
0.712880,1060,712892,932
0.713556,1061,713568,932
0.714228,1062,714240,932
0.714904,1063,714916,932
0.715580,1064,715592,931
0.716256,1065,716268,931
0.716928,1066,716940,931
0.717604,1067,717616,931
0.718280,1068,718292,931
0.718956,1069,718968,932
0.719628,1070,719640,931
0.720304,1071,720316,931
0.720980,1072,720992,932
0.721656,1073,721668,932
0.722328,1074,722340,932
0.723004,1075,723016,932
0.723680,1076,723692,931
0.724356,1077,724368,931
0.725028,1078,725040,932
0.725704,1079,725716,932
0.726380,1080,726392,932
0.727056,1081,727068,932
0.727728,1082,727740,931
0.728404,1083,728416,932
0.729084,1084,729096,932
0.729756,1085,729768,931
0.730428,1086,730440,932
0.731104,1087,731116,931
0.731780,1088,731792,931
0.732456,1089,732468,932
0.733128,1090,733140,932
0.733804,1091,733816,932
0.734480,1092,734492,932
0.735156,1093,735168,931
0.735828,1094,735840,932
0.736504,1095,736516,932
0.737180,1096,737192,932
0.737856,1097,737868,932
0.738528,1098,738540,931
0.739204,1099,739216,931
0.739880,1100,739892,932
0.740556,1101,740568,931
0.741228,1102,741240,932
0.741904,1103,741916,931
0.742580,1104,742592,931
0.743256,1105,743268,932
0.743928,1106,743940,932
0.744604,1107,744616,931
0.745280,1108,745292,932
0.745956,1109,745968,931
0.746628,1110,746640,932
0.747304,1111,747316,932
0.747980,1112,747992,932
0.748656,1113,748668,931
0.749328,1114,749340,932
0.750004,1115,750016,931
0.750680,1116,750692,932
0.751356,1117,751368,932
0.752028,1118,752040,932
0.752704,1119,752716,932
0.753380,1120,753392,931
0.754056,1121,754068,932
0.754728,1122,754740,931
0.755404,1123,755416,932
0.756080,1124,756092,932
0.756756,1125,756768,932
0.757428,1126,757440,932
0.758104,1127,758116,932
0.758784,1128,758796,932
0.759456,1129,759468,931
0.760128,1130,760140,932
0.760804,1131,760816,931
0.761480,1132,761492,932
0.762156,1133,762168,931
0.762828,1134,762840,932
0.763504,1135,763516,931
0.764180,1136,764192,931
0.764856,1137,764868,932
0.765528,1138,765540,932
0.766204,1139,766216,932
0.766880,1140,766892,932
0.767556,1141,767568,931
0.768228,1142,768240,932
0.768904,1143,768916,932
0.769580,1144,769592,931
0.770256,1145,770268,931
0.770928,1146,770940,931
0.771604,1147,771616,931
0.772280,1148,772292,931
0.772956,1149,772968,932
0.773628,1150,773640,931
0.774304,1151,774316,931
0.774980,1152,774992,931
0.775656,1153,775668,931
0.776328,1154,776340,931
0.777004,1155,777016,932
0.777680,1156,777692,932
0.778356,1157,778368,931
0.779028,1158,779040,931
0.779704,1159,779716,931
0.780380,1160,780392,931
0.781056,1161,781068,932
0.781728,1162,781740,932
0.782404,1163,782416,932
0.783080,1164,783092,932
0.783756,1165,783768,931
0.784428,1166,784440,932
0.785104,1167,785116,931
0.785780,1168,785792,932
0.786456,1169,786468,932
0.787128,1170,787140,932
0.787804,1171,787816,931
0.788484,1172,788496,932
0.789156,1173,789168,931
0.789828,1174,789840,932
0.790504,1175,790516,931
0.791180,1176,791192,932
0.791856,1177,791868,932
0.792528,1178,792540,932
0.793204,1179,793216,932
0.793880,1180,793892,932
0.794556,1181,794568,931
0.795228,1182,795240,932
0.795904,1183,795916,931
0.796580,1184,796592,931
0.797256,1185,797268,931
0.797928,1186,797940,931
0.798604,1187,798616,932
0.799280,1188,799292,932
0.799956,1189,799968,931
0.800628,1190,800640,932
0.801304,1191,801316,932
0.801980,1192,801992,932
0.802656,1193,802668,932
0.803328,1194,803340,931
0.804004,1195,804016,931
0.804680,1196,804692,932
0.805356,1197,805368,932
0.806028,1198,806040,932
0.806704,1199,806716,932
0.807380,1200,807392,931
0.808056,1201,808068,932
0.808728,1202,808740,932
0.809404,1203,809416,932
0.810080,1204,810092,932
0.810756,1205,810768,932
0.811428,1206,811440,932
0.812104,1207,812116,931
0.812780,1208,812792,932
0.813456,1209,813468,932
0.814128,1210,814140,932
0.814804,1211,814816,931
0.815480,1212,815492,932
0.816156,1213,816168,931
0.816828,1214,816840,931
0.817504,1215,817516,932
0.818184,1216,818196,931
0.818856,1217,818868,932
0.819528,1218,819540,932
0.820204,1219,820216,931
0.820880,1220,820892,932
0.821556,1221,821568,931
0.822228,1222,822240,932
0.822904,1223,822916,931
0.823580,1224,823592,932
0.824256,1225,824268,932
0.824928,1226,824940,931
0.825604,1227,825616,931
0.826280,1228,826292,931
0.826956,1229,826968,932
0.827628,1230,827640,932
0.828304,1231,828316,931
0.828980,1232,828992,932
0.829656,1233,829668,932
0.830328,1234,830340,932
0.831004,1235,831016,932
0.831680,1236,831692,932
0.832356,1237,832368,932
0.833028,1238,833040,931
0.833704,1239,833716,931
0.834380,1240,834392,931
0.835056,1241,835068,931
0.835728,1242,835740,931
0.836404,1243,836416,932
0.837080,1244,837092,932
0.837756,1245,837768,931
0.838428,1246,838440,932
0.839104,1247,839116,932
0.839780,1248,839792,932
0.840456,1249,840468,932
0.841128,1250,841140,932
0.841804,1251,841816,931
0.842480,1252,842492,931
0.843156,1253,843168,932
0.843828,1254,843840,931
0.844504,1255,844516,932
0.845180,1256,845192,931
0.845856,1257,845868,931
0.846528,1258,846540,932
0.847204,1259,847216,932
0.847880,1260,847892,932
0.848556,1261,848568,932
0.849228,1262,849240,932
0.849904,1263,849916,931
0.850580,1264,850592,932
0.851256,1265,851268,932
0.851928,1266,851940,932
0.852604,1267,852616,931
0.853280,1268,853292,931
0.853956,1269,853968,931
0.854628,1270,854640,932
0.855304,1271,855316,932
0.855980,1272,855992,931
0.856656,1273,856668,932
0.857328,1274,857340,932
0.858004,1275,858016,932
0.858680,1276,858692,932
0.859356,1277,859368,931
0.860028,1278,860040,932
0.860704,1279,860716,932
0.861380,1280,861392,931
0.862056,1281,862068,932
0.862728,1282,862740,932
0.863404,1283,863416,932
0.864080,1284,864092,932
0.864756,1285,864768,932
0.865428,1286,865440,932
0.866104,1287,866116,931
0.866780,1288,866792,932
0.867456,1289,867468,932
0.868128,1290,868140,931
0.868804,1291,868816,932
0.869480,1292,869492,931
0.870156,1293,870168,931
0.870828,1294,870840,932
0.871504,1295,871516,931
0.872180,1296,872192,932
0.872856,1297,872868,932
0.873528,1298,873540,931
0.874204,1299,874216,932
0.874880,1300,874892,931
0.875556,1301,875568,931
0.876228,1302,876240,932
0.876904,1303,876916,932
0.877580,1304,877592,931
0.878256,1305,878268,932
0.878928,1306,878940,932
0.879612,1307,879624,932
0.880280,1308,880292,931
0.880956,1309,880968,931
0.881628,1310,881640,932
0.882304,1311,882316,932
0.882980,1312,882992,932
0.883656,1313,883668,931
0.884328,1314,884340,932
0.885004,1315,885016,931
0.885680,1316,885692,932
0.886356,1317,886368,932
0.887028,1318,887040,931
0.887704,1319,887716,931
0.888380,1320,888392,932
0.889056,1321,889068,931
0.889728,1322,889740,931
0.890404,1323,890416,931
0.891080,1324,891092,931
0.891756,1325,891768,931
0.892428,1326,892440,931
0.893104,1327,893116,932
0.893780,1328,893792,931
0.894456,1329,894468,931
0.895128,1330,895140,932
0.895804,1331,895816,932
0.896480,1332,896492,931
0.897156,1333,897168,932
0.897828,1334,897840,932
0.898504,1335,898516,931
0.899180,1336,899192,932
0.899856,1337,899868,932
0.900528,1338,900540,932
0.901204,1339,901216,932
0.901880,1340,901892,932
0.902556,1341,902568,932
0.903228,1342,903240,932
0.903904,1343,903916,931
0.904580,1344,904592,932
0.905256,1345,905268,931
0.905928,1346,905940,932
0.906604,1347,906616,931
0.907280,1348,907292,932
0.907956,1349,907968,932
0.908628,1350,908640,931
0.909312,1351,909324,931
0.909980,1352,909992,932
0.910656,1353,910668,932
0.911328,1354,911340,931
0.912004,1355,912016,932
0.912680,1356,912692,932
0.913356,1357,913368,932
0.914028,1358,914040,932
0.914704,1359,914716,931
0.915380,1360,915392,932
0.916056,1361,916068,932
0.916728,1362,916740,931
0.917404,1363,917416,932
0.918080,1364,918092,931
0.918756,1365,918768,932
0.919428,1366,919440,931
0.920104,1367,920116,932
0.920780,1368,920792,931
0.921456,1369,921468,932
0.922128,1370,922140,931
0.922804,1371,922816,931
0.923480,1372,923492,932
0.924156,1373,924168,931
0.924828,1374,924840,931
0.925504,1375,925516,932
0.926180,1376,926192,932
0.926856,1377,926868,932
0.927528,1378,927540,931
0.928204,1379,928216,932
0.928880,1380,928892,932
0.929556,1381,929568,932
0.930228,1382,930240,932
0.930904,1383,930916,932
0.931580,1384,931592,932
0.932256,1385,932268,932
0.932928,1386,932940,932
0.933604,1387,933616,932
0.934280,1388,934292,932
0.934956,1389,934968,932
0.935628,1390,935640,931
0.936304,1391,936316,931
0.936980,1392,936992,932
0.937656,1393,937668,932
0.938328,1394,938340,931
0.939012,1395,939024,931
0.939680,1396,939692,932
0.940356,1397,940368,932
0.941028,1398,941040,931
0.941704,1399,941716,932
0.942380,1400,942392,931
0.943056,1401,943068,932
0.943728,1402,943740,932
0.944404,1403,944416,932
0.945080,1404,945092,931
0.945756,1405,945768,932
0.946428,1406,946440,932
0.947104,1407,947116,932
0.947780,1408,947792,931
0.948456,1409,948468,932
0.949128,1410,949140,932
0.949804,1411,949816,932
0.950480,1412,950492,931
0.951156,1413,951168,931
0.951828,1414,951840,932
0.952504,1415,952516,932
0.953180,1416,953192,932
0.953856,1417,953868,931
0.954528,1418,954540,932
0.955204,1419,955216,932
0.955880,1420,955892,931
0.956556,1421,956568,931
0.957228,1422,957240,932
0.957904,1423,957916,931
0.958580,1424,958592,932
0.959256,1425,959268,932
0.959928,1426,959940,932
0.960604,1427,960616,932
0.961280,1428,961292,931
0.961956,1429,961968,932
0.962628,1430,962640,931
0.963304,1431,963316,931
0.963980,1432,963992,932
0.964656,1433,964668,932
0.965328,1434,965340,932
0.966004,1435,966016,931
0.966680,1436,966692,932
0.967356,1437,967368,931
0.968028,1438,968040,932
0.968712,1439,968724,931
0.969380,1440,969392,931
0.970056,1441,970068,932
0.970728,1442,970740,931
0.971404,1443,971416,932
0.972080,1444,972092,932
0.972756,1445,972768,931
0.973428,1446,973440,932
0.974104,1447,974116,931
0.974780,1448,974792,932
0.975456,1449,975468,931
0.976128,1450,976140,931
0.976804,1451,976816,932
0.977480,1452,977492,932
0.978156,1453,978168,932
0.978828,1454,978840,931
0.979504,1455,979516,931
0.980180,1456,980192,931
0.980856,1457,980868,932
0.981528,1458,981540,931
0.982204,1459,982216,932
0.982880,1460,982892,932
0.983556,1461,983568,932
0.984228,1462,984240,932
0.984904,1463,984916,932
0.985580,1464,985592,932
0.986256,1465,986268,932
0.986928,1466,986940,931
0.987604,1467,987616,931
0.988280,1468,988292,931
0.988956,1469,988968,932
0.989628,1470,989640,932
0.990304,1471,990316,932
0.990980,1472,990992,932
0.991656,1473,991668,932
0.992328,1474,992340,931
0.993004,1475,993016,932
0.993680,1476,993692,931
0.994356,1477,994368,932
0.995028,1478,995040,931
0.995704,1479,995716,931
0.996380,1480,996392,932
0.997056,1481,997068,932
0.997728,1482,997740,932
0.998408,1483,998420,932
0.999080,1484,999092,931
0.999756,1485,999768,932
1.000428,1486,1000440,931
1.001104,1487,1001116,931
1.001780,1488,1001792,932
1.002456,1489,1002468,932
1.003128,1490,1003140,931
1.003804,1491,1003816,932
1.004480,1492,1004492,932
1.005156,1493,1005168,931
1.005828,1494,1005840,932
1.006504,1495,1006516,932
1.007180,1496,1007192,932
1.007856,1497,1007868,932
1.008528,1498,1008540,931
1.009204,1499,1009216,932
1.009880,1500,1009892,931
1.010556,1501,1010568,932
1.011228,1502,1011240,931
1.011904,1503,1011916,931
1.012580,1504,1012592,932
1.013256,1505,1013268,932
1.013928,1506,1013940,931
1.014604,1507,1014616,932
1.015280,1508,1015292,931
1.015956,1509,1015968,932
1.016628,1510,1016640,931
1.017304,1511,1017316,931
1.017980,1512,1017992,932
1.018656,1513,1018668,932
1.019328,1514,1019340,932
1.020004,1515,1020016,932
1.020680,1516,1020692,932
1.021356,1517,1021368,932
1.022028,1518,1022040,931
1.022704,1519,1022716,931
1.023380,1520,1023392,931
1.024056,1521,1024068,932
1.024728,1522,1024740,931
1.025404,1523,1025416,932
1.026080,1524,1026092,931
1.026756,1525,1026768,932
1.027428,1526,1027440,932
1.028104,1527,1028116,932
1.028780,1528,1028792,931
1.029456,1529,1029468,932
1.030128,1530,1030140,931
1.030804,1531,1030816,931
1.031480,1532,1031492,931
1.032156,1533,1032168,932
1.032828,1534,1032840,932
1.033504,1535,1033516,932
1.034180,1536,1034192,931
1.034856,1537,1034868,932
1.035528,1538,1035540,931
1.036204,1539,1036216,932
1.036880,1540,1036892,931
1.037556,1541,1037568,932
1.038228,1542,1038240,932
1.038904,1543,1038916,932
1.039580,1544,1039592,931
1.040256,1545,1040268,932
1.040928,1546,1040940,931
1.041604,1547,1041616,932
1.042280,1548,1042292,931
1.042956,1549,1042968,932
1.043628,1550,1043640,932
1.044304,1551,1044316,931
1.044980,1552,1044992,931
1.045656,1553,1045668,932
1.046328,1554,1046340,932
1.047004,1555,1047016,931
1.047680,1556,1047692,931
1.048356,1557,1048368,932
1.049028,1558,1049040,932
1.049704,1559,1049716,932
1.050380,1560,1050392,932
1.051056,1561,1051068,931
1.051728,1562,1051740,932
1.052404,1563,1052416,932
1.053080,1564,1053092,932
1.053756,1565,1053768,932
1.054428,1566,1054440,932
1.055104,1567,1055116,932
1.055780,1568,1055792,931
1.056456,1569,1056468,932
1.057128,1570,1057140,932
1.057804,1571,1057816,931
1.058480,1572,1058492,932
1.059156,1573,1059168,931
1.059836,1574,1059848,932
1.060504,1575,1060516,932
1.061180,1576,1061192,932
1.061856,1577,1061868,932
1.062528,1578,1062540,932
1.063204,1579,1063216,932
1.063880,1580,1063892,931
1.064556,1581,1064568,931
1.065228,1582,1065240,932
1.065904,1583,1065916,932
1.066580,1584,1066592,932
1.067256,1585,1067268,932
1.067928,1586,1067940,932
1.068604,1587,1068616,932
1.069280,1588,1069292,932
1.069956,1589,1069968,931
1.070628,1590,1070640,932
1.071304,1591,1071316,931
1.071980,1592,1071992,931
1.072656,1593,1072668,932
1.073328,1594,1073340,932
1.074004,1595,1074016,932
1.074680,1596,1074692,932
1.075356,1597,1075368,932
1.076028,1598,1076040,932
1.076704,1599,1076716,931
1.077380,1600,1077392,932
1.078056,1601,1078068,931
1.078728,1602,1078740,931
1.079404,1603,1079416,932
1.080080,1604,1080092,932
1.080756,1605,1080768,932
1.081428,1606,1081440,932
1.082104,1607,1082116,931
1.082780,1608,1082792,932
1.083456,1609,1083468,932
1.084128,1610,1084140,931
1.084804,1611,1084816,932
1.085480,1612,1085492,932
1.086156,1613,1086168,931
1.086828,1614,1086840,932
1.087504,1615,1087516,932
1.088180,1616,1088192,931
1.088856,1617,1088868,932
1.089536,1618,1089548,931
1.090204,1619,1090216,931
1.090880,1620,1090892,931
1.091556,1621,1091568,931
1.092228,1622,1092240,931
1.092904,1623,1092916,932
1.093580,1624,1093592,931
1.094256,1625,1094268,931
1.094928,1626,1094940,931
1.095604,1627,1095616,932
1.096280,1628,1096292,932
1.096956,1629,1096968,931
1.097628,1630,1097640,931
1.098304,1631,1098316,931
1.098980,1632,1098992,932
1.099656,1633,1099668,932
1.100328,1634,1100340,932
1.101004,1635,1101016,932
1.101680,1636,1101692,931
1.102356,1637,1102368,932
1.103028,1638,1103040,931
1.103704,1639,1103716,931
1.104380,1640,1104392,932
1.105056,1641,1105068,932
1.105728,1642,1105740,932
1.106404,1643,1106416,931
1.107080,1644,1107092,931
1.107756,1645,1107768,932
1.108428,1646,1108440,931
1.109104,1647,1109116,931
1.109780,1648,1109792,931
1.110456,1649,1110468,931
1.111128,1650,1111140,932
1.111804,1651,1111816,931
1.112480,1652,1112492,932
1.113156,1653,1113168,932
1.113828,1654,1113840,932
1.114504,1655,1114516,932
1.115180,1656,1115192,932
1.115856,1657,1115868,931
1.116528,1658,1116540,932
1.117204,1659,1117216,931
1.117880,1660,1117892,931
1.118556,1661,1118568,931
1.119236,1662,1119248,931
1.119904,1663,1119916,932
1.120580,1664,1120592,931
1.121256,1665,1121268,931
1.121928,1666,1121940,931
1.122604,1667,1122616,932
1.123280,1668,1123292,932
1.123956,1669,1123968,932
1.124628,1670,1124640,932
1.125304,1671,1125316,931
1.125980,1672,1125992,932
1.126656,1673,1126668,932
1.127328,1674,1127340,931
1.128004,1675,1128016,932
1.128680,1676,1128692,932
1.129356,1677,1129368,932
1.130028,1678,1130040,932
1.130704,1679,1130716,932
1.131380,1680,1131392,931
1.132056,1681,1132068,932
1.132728,1682,1132740,931
1.133404,1683,1133416,931
1.134080,1684,1134092,932
1.134756,1685,1134768,932
1.135428,1686,1135440,932
1.136104,1687,1136116,931
1.136780,1688,1136792,931
1.137456,1689,1137468,932
1.138128,1690,1138140,931
1.138804,1691,1138816,932
1.139480,1692,1139492,932
1.140156,1693,1140168,931
1.140828,1694,1140840,932
1.141504,1695,1141516,932
1.142180,1696,1142192,931
1.142856,1697,1142868,932
1.143528,1698,1143540,932
1.144204,1699,1144216,932
1.144880,1700,1144892,931
1.145556,1701,1145568,931
1.146228,1702,1146240,932
1.146904,1703,1146916,931
1.147580,1704,1147592,932
1.148256,1705,1148268,932
1.148936,1706,1148948,931
1.149604,1707,1149616,931
1.150280,1708,1150292,931
1.150956,1709,1150968,932
1.151628,1710,1151640,931
1.152304,1711,1152316,931
1.152980,1712,1152992,931
1.153656,1713,1153668,932
1.154328,1714,1154340,932
1.155004,1715,1155016,932
1.155680,1716,1155692,932
1.156356,1717,1156368,931
1.157028,1718,1157040,931
1.157704,1719,1157716,931
1.158380,1720,1158392,932
1.159056,1721,1159068,931
1.159728,1722,1159740,932
1.160404,1723,1160416,932
1.161080,1724,1161092,932
1.161756,1725,1161768,932
1.162428,1726,1162440,932
1.163104,1727,1163116,932
1.163780,1728,1163792,931
1.164456,1729,1164468,932
1.165128,1730,1165140,931
1.165804,1731,1165816,932
1.166480,1732,1166492,931
1.167156,1733,1167168,932
1.167828,1734,1167840,932
1.168504,1735,1168516,932
1.169180,1736,1169192,931
1.169856,1737,1169868,932
1.170528,1738,1170540,931
1.171204,1739,1171216,932
1.171880,1740,1171892,932
1.172556,1741,1172568,932
1.173228,1742,1173240,931
1.173904,1743,1173916,931
1.174580,1744,1174592,931
1.175256,1745,1175268,932
1.175928,1746,1175940,932
1.176604,1747,1176616,932
1.177280,1748,1177292,932
1.177956,1749,1177968,931
1.178632,1750,1178644,931
1.179304,1751,1179316,932
1.179980,1752,1179992,932
1.180656,1753,1180668,932
1.181328,1754,1181340,932
1.182004,1755,1182016,932
1.182680,1756,1182692,931
1.183356,1757,1183368,932
1.184028,1758,1184040,932
1.184704,1759,1184716,931
1.185380,1760,1185392,931
1.186056,1761,1186068,932
1.186728,1762,1186740,932
1.187404,1763,1187416,932
1.188080,1764,1188092,932
1.188756,1765,1188768,932
1.189428,1766,1189440,931
1.190104,1767,1190116,931
1.190780,1768,1190792,932
1.191456,1769,1191468,932
1.192128,1770,1192140,932
1.192804,1771,1192816,931
1.193480,1772,1193492,931
1.194156,1773,1194168,932
1.194828,1774,1194840,931
1.195504,1775,1195516,931
1.196180,1776,1196192,932
1.196856,1777,1196868,932
1.197528,1778,1197540,931
1.198204,1779,1198216,932
1.198880,1780,1198892,932
1.199556,1781,1199568,932
1.200228,1782,1200240,932
1.200904,1783,1200916,932
1.201580,1784,1201592,932
1.202256,1785,1202268,932
1.202928,1786,1202940,931
1.203604,1787,1203616,931
1.204280,1788,1204292,932
1.204956,1789,1204968,931
1.205628,1790,1205640,931
1.206304,1791,1206316,931
1.206980,1792,1206992,931
1.207656,1793,1207668,932
1.208328,1794,1208340,932
1.209004,1795,1209016,932
1.209680,1796,1209692,931
1.210356,1797,1210368,931
1.211028,1798,1211040,932
1.211704,1799,1211716,932
1.212380,1800,1212392,932
1.213056,1801,1213068,932
1.213728,1802,1213740,932
1.214404,1803,1214416,932
1.215080,1804,1215092,931
1.215756,1805,1215768,931
1.216428,1806,1216440,932
1.217104,1807,1217116,931
1.217780,1808,1217792,931
1.218456,1809,1218468,932
1.219128,1810,1219140,931
1.219804,1811,1219816,932
1.220480,1812,1220492,931
1.221156,1813,1221168,932
1.221828,1814,1221840,932
1.222504,1815,1222516,931
1.223180,1816,1223192,932
1.223856,1817,1223868,932
1.224528,1818,1224540,932
1.225204,1819,1225216,932
1.225880,1820,1225892,932
1.226556,1821,1226568,932
1.227228,1822,1227240,931
1.227904,1823,1227916,931
1.228580,1824,1228592,931
1.229256,1825,1229268,932
1.229928,1826,1229940,931
1.230604,1827,1230616,932
1.231280,1828,1231292,931
1.231956,1829,1231968,931
1.232628,1830,1232640,932
1.233304,1831,1233316,931
1.233980,1832,1233992,932
1.234656,1833,1234668,931
1.235328,1834,1235340,931
1.236004,1835,1236016,931
1.236680,1836,1236692,931
1.237356,1837,1237368,932
1.238028,1838,1238040,932
1.238704,1839,1238716,931
1.239380,1840,1239392,932
1.240060,1841,1240072,932
1.240728,1842,1240740,932
1.241404,1843,1241416,931
1.242080,1844,1242092,932
1.242756,1845,1242768,932
1.243428,1846,1243440,931
1.244104,1847,1244116,932
1.244780,1848,1244792,931
1.245456,1849,1245468,932
1.246128,1850,1246140,932
1.246804,1851,1246816,932
1.247480,1852,1247492,932
1.248156,1853,1248168,932
1.248828,1854,1248840,932
1.249504,1855,1249516,932
1.250180,1856,1250192,932
1.250856,1857,1250868,931
1.251528,1858,1251540,931
1.252204,1859,1252216,931
1.252880,1860,1252892,932
1.253556,1861,1253568,931
1.254228,1862,1254240,932
1.254904,1863,1254916,932
1.255580,1864,1255592,931
1.256256,1865,1256268,932
1.256928,1866,1256940,931
1.257604,1867,1257616,932
1.258280,1868,1258292,931
1.258956,1869,1258968,932
1.259628,1870,1259640,931
1.260304,1871,1260316,931
1.260980,1872,1260992,932
1.261656,1873,1261668,931
1.262328,1874,1262340,931
1.263004,1875,1263016,932
1.263680,1876,1263692,932
1.264356,1877,1264368,931
1.265028,1878,1265040,932
1.265704,1879,1265716,932
1.266380,1880,1266392,931
1.267056,1881,1267068,931
1.267728,1882,1267740,932
1.268404,1883,1268416,931
1.269080,1884,1269092,931
1.269760,1885,1269772,931
1.270428,1886,1270440,932
1.271104,1887,1271116,932
1.271780,1888,1271792,931
1.272456,1889,1272468,931
1.273128,1890,1273140,932
1.273804,1891,1273816,932
1.274480,1892,1274492,932
1.275156,1893,1275168,931
1.275828,1894,1275840,932
1.276504,1895,1276516,932
1.277180,1896,1277192,932
1.277856,1897,1277868,932
1.278528,1898,1278540,931
1.279204,1899,1279216,932
1.279880,1900,1279892,932
1.280556,1901,1280568,932
1.281228,1902,1281240,932
1.281904,1903,1281916,931
1.282580,1904,1282592,932
1.283256,1905,1283268,932
1.283928,1906,1283940,931
1.284604,1907,1284616,932
1.285280,1908,1285292,931
1.285956,1909,1285968,931
1.286628,1910,1286640,932
1.287304,1911,1287316,931
1.287980,1912,1287992,931
1.288656,1913,1288668,931
1.289328,1914,1289340,931
1.290004,1915,1290016,932
1.290680,1916,1290692,931
1.291356,1917,1291368,931
1.292028,1918,1292040,931
1.292704,1919,1292716,932
1.293380,1920,1293392,932
1.294056,1921,1294068,931
1.294728,1922,1294740,932
1.295404,1923,1295416,932
1.296080,1924,1296092,931
1.296756,1925,1296768,931
1.297428,1926,1297440,932
1.298104,1927,1298116,931
1.298780,1928,1298792,932
1.299460,1929,1299472,931
1.300128,1930,1300140,931
1.300804,1931,1300816,932
1.301480,1932,1301492,932
1.302156,1933,1302168,932
1.302828,1934,1302840,932
1.303504,1935,1303516,931
1.304180,1936,1304192,932
1.304856,1937,1304868,932
1.305528,1938,1305540,931
1.306204,1939,1306216,932
1.306880,1940,1306892,932
1.307556,1941,1307568,932
1.308228,1942,1308240,932
1.308904,1943,1308916,932
1.309580,1944,1309592,932
1.310256,1945,1310268,932
1.310928,1946,1310940,932
1.311604,1947,1311616,932
1.312280,1948,1312292,932
1.312956,1949,1312968,931
1.313628,1950,1313640,932
1.314304,1951,1314316,932
1.314980,1952,1314992,932
1.315656,1953,1315668,932
1.316328,1954,1316340,931
1.317004,1955,1317016,931
1.317680,1956,1317692,931
1.318356,1957,1318368,932
1.319028,1958,1319040,932
1.319704,1959,1319716,931
1.320380,1960,1320392,932
1.321056,1961,1321068,931
1.321728,1962,1321740,932
1.322404,1963,1322416,932
1.323080,1964,1323092,932
1.323756,1965,1323768,932
1.324428,1966,1324440,932
1.325104,1967,1325116,931
1.325780,1968,1325792,931
1.326456,1969,1326468,932
1.327128,1970,1327140,932
1.327804,1971,1327816,931
1.328480,1972,1328492,932
1.329160,1973,1329172,932
1.329828,1974,1329840,931
1.330504,1975,1330516,932
1.331180,1976,1331192,931
1.331856,1977,1331868,932
1.332528,1978,1332540,931
1.333204,1979,1333216,931
1.333880,1980,1333892,932
1.334556,1981,1334568,932
1.335228,1982,1335240,931
1.335904,1983,1335916,932
1.336580,1984,1336592,931
1.337256,1985,1337268,931
1.337928,1986,1337940,931
1.338604,1987,1338616,931
1.339280,1988,1339292,932
1.339956,1989,1339968,931
1.340628,1990,1340640,932
1.341304,1991,1341316,932
1.341980,1992,1341992,932
1.342656,1993,1342668,932
1.343328,1994,1343340,931
1.344004,1995,1344016,932
1.344680,1996,1344692,932
1.345356,1997,1345368,932
1.346028,1998,1346040,932
1.346704,1999,1346716,931
1.347380,2000,1347392,931
1.348056,2001,1348068,932
1.348728,2002,1348740,931
1.349404,2003,1349416,931
1.350080,2004,1350092,932
1.350756,2005,1350768,931
1.351428,2006,1351440,931
1.352104,2007,1352116,932
1.352780,2008,1352792,931
1.353456,2009,1353468,932
1.354128,2010,1354140,931
1.354804,2011,1354816,932
1.355480,2012,1355492,931
1.356156,2013,1356168,932
1.356828,2014,1356840,932
1.357504,2015,1357516,931
1.358180,2016,1358192,932
1.358856,2017,1358868,932
1.359528,2018,1359540,931
1.360204,2019,1360216,931
1.360880,2020,1360892,932
1.361556,2021,1361568,931
1.362228,2022,1362240,932
1.362904,2023,1362916,931
1.363580,2024,1363592,932
1.364256,2025,1364268,932
1.364928,2026,1364940,932
1.365604,2027,1365616,932
1.366280,2028,1366292,932
1.366956,2029,1366968,932
1.367628,2030,1367640,931
1.368304,2031,1368316,931
1.368980,2032,1368992,932
1.369656,2033,1369668,932
1.370328,2034,1370340,932
1.371004,2035,1371016,931
1.371680,2036,1371692,931
1.372356,2037,1372368,932
1.373028,2038,1373040,931
1.373704,2039,1373716,932
1.374380,2040,1374392,932
1.375056,2041,1375068,932
1.375728,2042,1375740,932
1.376404,2043,1376416,932
1.377080,2044,1377092,932
1.377756,2045,1377768,931
1.378428,2046,1378440,932
1.379104,2047,1379116,932
1.379780,2048,1379792,932
1.380456,2049,1380468,931
1.381128,2050,1381140,931
1.381804,2051,1381816,931
1.382480,2052,1382492,932
1.383156,2053,1383168,932
1.383828,2054,1383840,932
1.384504,2055,1384516,932
1.385180,2056,1385192,931
1.385856,2057,1385868,932
1.386528,2058,1386540,932
1.387204,2059,1387216,932
1.387880,2060,1387892,931
1.388556,2061,1388568,932
1.389228,2062,1389240,932
1.389904,2063,1389916,931
1.390584,2064,1390596,931
1.391256,2065,1391268,932
1.391928,2066,1391940,932
1.392604,2067,1392616,932
1.393280,2068,1393292,931
1.393956,2069,1393968,931
1.394628,2070,1394640,931
1.395304,2071,1395316,932
1.395980,2072,1395992,931
1.396656,2073,1396668,932
1.397328,2074,1397340,931
1.398004,2075,1398016,931
1.398680,2076,1398692,932
1.399356,2077,1399368,931
1.400028,2078,1400040,932
1.400704,2079,1400716,931
1.401380,2080,1401392,932
1.402056,2081,1402068,932
1.402728,2082,1402740,931
1.403404,2083,1403416,932
1.404080,2084,1404092,931
1.404756,2085,1404768,932
1.405428,2086,1405440,932
1.406104,2087,1406116,931
1.406780,2088,1406792,931
1.407456,2089,1407468,932
1.408128,2090,1408140,932
1.408804,2091,1408816,932
1.409480,2092,1409492,932
1.410156,2093,1410168,932
1.410828,2094,1410840,931
1.411504,2095,1411516,931
1.412180,2096,1412192,931
1.412856,2097,1412868,932
1.413528,2098,1413540,931
1.414204,2099,1414216,932
1.414880,2100,1414892,932
1.415556,2101,1415568,932
1.416228,2102,1416240,932
1.416904,2103,1416916,932
1.417580,2104,1417592,931
1.418256,2105,1418268,931
1.418928,2106,1418940,932
1.419604,2107,1419616,932
1.420284,2108,1420296,931
1.420956,2109,1420968,932
1.421628,2110,1421640,931
1.422304,2111,1422316,931
1.422980,2112,1422992,931
1.423656,2113,1423668,931
1.424328,2114,1424340,931
1.425004,2115,1425016,932
1.425680,2116,1425692,932
1.426356,2117,1426368,932
1.427028,2118,1427040,932
1.427704,2119,1427716,932
1.428380,2120,1428392,932
1.429056,2121,1429068,931
1.429728,2122,1429740,932
1.430404,2123,1430416,932
1.431080,2124,1431092,931
1.431756,2125,1431768,931
1.432428,2126,1432440,932
1.433104,2127,1433116,931
1.433780,2128,1433792,932
1.434456,2129,1434468,932
1.435128,2130,1435140,931
1.435804,2131,1435816,932
1.436480,2132,1436492,932
1.437156,2133,1437168,931
1.437828,2134,1437840,931
1.438504,2135,1438516,931
1.439180,2136,1439192,932
1.439856,2137,1439868,932
1.440528,2138,1440540,931
1.441204,2139,1441216,932
1.441880,2140,1441892,931
1.442556,2141,1442568,931
1.443228,2142,1443240,931
1.443904,2143,1443916,932
1.444580,2144,1444592,932
1.445256,2145,1445268,931
1.445928,2146,1445940,932
1.446604,2147,1446616,932
1.447280,2148,1447292,932
1.447956,2149,1447968,932
1.448628,2150,1448640,932
1.449304,2151,1449316,932
1.449984,2152,1449996,932
1.450656,2153,1450668,931
1.451328,2154,1451340,931
1.452004,2155,1452016,931
1.452680,2156,1452692,932
1.453356,2157,1453368,931
1.454028,2158,1454040,931
1.454704,2159,1454716,931
1.455380,2160,1455392,932
1.456056,2161,1456068,932
1.456728,2162,1456740,931
1.457404,2163,1457416,932
1.458080,2164,1458092,932
1.458756,2165,1458768,932
1.459428,2166,1459440,932
1.460104,2167,1460116,931
1.460780,2168,1460792,932
1.461456,2169,1461468,932
1.462128,2170,1462140,931
1.462804,2171,1462816,931
1.463480,2172,1463492,931
1.464156,2173,1464168,932
1.464828,2174,1464840,931
1.465504,2175,1465516,932
1.466180,2176,1466192,932
1.466856,2177,1466868,932
1.467528,2178,1467540,932
1.468204,2179,1468216,932
1.468880,2180,1468892,931
1.469556,2181,1469568,932
1.470228,2182,1470240,931
1.470904,2183,1470916,931
1.471580,2184,1471592,931
1.472256,2185,1472268,932
1.472928,2186,1472940,931
1.473604,2187,1473616,932
1.474280,2188,1474292,932
1.474956,2189,1474968,932
1.475628,2190,1475640,932
1.476304,2191,1476316,931
1.476980,2192,1476992,932
1.477656,2193,1477668,932
1.478328,2194,1478340,931
1.479004,2195,1479016,932
1.479684,2196,1479696,931
1.480356,2197,1480368,931
1.481028,2198,1481040,931
1.481704,2199,1481716,932
1.482380,2200,1482392,932
1.483056,2201,1483068,932
1.483728,2202,1483740,931
1.484404,2203,1484416,932
1.485080,2204,1485092,932
1.485756,2205,1485768,932
1.486428,2206,1486440,931
1.487104,2207,1487116,932
1.487780,2208,1487792,932
1.488456,2209,1488468,931
1.489128,2210,1489140,931
1.489804,2211,1489816,931
1.490480,2212,1490492,932
1.491156,2213,1491168,932
1.491828,2214,1491840,931
1.492504,2215,1492516,931
1.493180,2216,1493192,932
1.493856,2217,1493868,932
1.494528,2218,1494540,931
1.495204,2219,1495216,932
1.495880,2220,1495892,932
1.496556,2221,1496568,932
1.497228,2222,1497240,932
1.497904,2223,1497916,932
1.498580,2224,1498592,931
1.499256,2225,1499268,932
1.499928,2226,1499940,932
1.500604,2227,1500616,932
1.501280,2228,1501292,932
1.501956,2229,1501968,932
1.502628,2230,1502640,932
1.503304,2231,1503316,931
1.503980,2232,1503992,932
1.504656,2233,1504668,932
1.505328,2234,1505340,931
1.506004,2235,1506016,932
1.506680,2236,1506692,931
1.507356,2237,1507368,931
1.508028,2238,1508040,932
1.508704,2239,1508716,931
1.509384,2240,1509396,932
1.510056,2241,1510068,932
1.510728,2242,1510740,932
1.511404,2243,1511416,932
1.512080,2244,1512092,931
1.512756,2245,1512768,932
1.513428,2246,1513440,932
1.514104,2247,1514116,931
1.514780,2248,1514792,931
1.515456,2249,1515468,932
1.516128,2250,1516140,931
1.516804,2251,1516816,931
1.517480,2252,1517492,931
1.518156,2253,1518168,931
1.518828,2254,1518840,932
1.519504,2255,1519516,931
1.520180,2256,1520192,932
1.520856,2257,1520868,932
1.521528,2258,1521540,931
1.522204,2259,1522216,931
1.522880,2260,1522892,932
1.523556,2261,1523568,932
1.524228,2262,1524240,932
1.524904,2263,1524916,931
1.525580,2264,1525592,932
1.526256,2265,1526268,931
1.526928,2266,1526940,932
1.527604,2267,1527616,932
1.528280,2268,1528292,932
1.528956,2269,1528968,932
1.529628,2270,1529640,931
1.530304,2271,1530316,931
1.530980,2272,1530992,931
1.531656,2273,1531668,932
1.532328,2274,1532340,932
1.533004,2275,1533016,931
1.533680,2276,1533692,931
1.534356,2277,1534368,931
1.535028,2278,1535040,931
1.535704,2279,1535716,931
1.536380,2280,1536392,931
1.537056,2281,1537068,931
1.537728,2282,1537740,932
1.538404,2283,1538416,932
1.539080,2284,1539092,932
1.539756,2285,1539768,932
1.540428,2286,1540440,932
1.541104,2287,1541116,932
1.541780,2288,1541792,932
1.542456,2289,1542468,932
1.543128,2290,1543140,931
1.543804,2291,1543816,931
1.544480,2292,1544492,932
1.545156,2293,1545168,931
1.545828,2294,1545840,932
1.546504,2295,1546516,932
1.547180,2296,1547192,932
1.547856,2297,1547868,932
1.548528,2298,1548540,932
1.549204,2299,1549216,932
1.549880,2300,1549892,932
1.550556,2301,1550568,932
1.551228,2302,1551240,931
1.551904,2303,1551916,931
1.552580,2304,1552592,931
1.553256,2305,1553268,932
1.553928,2306,1553940,931
1.554604,2307,1554616,931
1.555280,2308,1555292,931
1.555956,2309,1555968,932
1.556628,2310,1556640,932
1.557304,2311,1557316,931
1.557980,2312,1557992,932
1.558656,2313,1558668,932
1.559328,2314,1559340,932
1.560004,2315,1560016,931
1.560680,2316,1560692,932
1.561356,2317,1561368,932
1.562028,2318,1562040,931
1.562704,2319,1562716,931
1.563380,2320,1563392,932
1.564056,2321,1564068,932
1.564728,2322,1564740,931
1.565404,2323,1565416,932
1.566080,2324,1566092,932
1.566756,2325,1566768,932
1.567428,2326,1567440,931
1.568104,2327,1568116,931
1.568780,2328,1568792,932
1.569456,2329,1569468,932
1.570128,2330,1570140,931
1.570812,2331,1570824,932
1.571480,2332,1571492,932
1.572156,2333,1572168,931
1.572828,2334,1572840,931
1.573504,2335,1573516,932
1.574180,2336,1574192,931
1.574856,2337,1574868,932
1.575528,2338,1575540,932
1.576204,2339,1576216,931
1.576880,2340,1576892,932
1.577556,2341,1577568,932
1.578228,2342,1578240,932
1.578904,2343,1578916,932
1.579580,2344,1579592,931
1.580256,2345,1580268,931
1.580928,2346,1580940,932
1.581604,2347,1581616,931
1.582280,2348,1582292,932
1.582956,2349,1582968,932
1.583628,2350,1583640,931
1.584304,2351,1584316,931
1.584980,2352,1584992,932
1.585656,2353,1585668,932
1.586328,2354,1586340,931
1.587004,2355,1587016,931
1.587680,2356,1587692,931
1.588356,2357,1588368,931
1.589028,2358,1589040,932
1.589704,2359,1589716,931
1.590380,2360,1590392,931
1.591056,2361,1591068,932
1.591728,2362,1591740,931
1.592404,2363,1592416,931
1.593080,2364,1593092,932
1.593756,2365,1593768,932
1.594428,2366,1594440,931
1.595104,2367,1595116,932
1.595780,2368,1595792,932
1.596456,2369,1596468,932
1.597128,2370,1597140,932
1.597804,2371,1597816,932
1.598480,2372,1598492,932
1.599156,2373,1599168,932
1.599828,2374,1599840,932
1.600512,2375,1600524,932
1.601180,2376,1601192,932
1.601856,2377,1601868,932
1.602528,2378,1602540,931
1.603204,2379,1603216,932
1.603880,2380,1603892,932
1.604556,2381,1604568,932
1.605228,2382,1605240,932
1.605904,2383,1605916,932
1.606580,2384,1606592,932
1.607256,2385,1607268,932
1.607928,2386,1607940,932
1.608604,2387,1608616,932
1.609280,2388,1609292,931
1.609956,2389,1609968,931
1.610628,2390,1610640,931
1.611304,2391,1611316,932
1.611980,2392,1611992,932
1.612656,2393,1612668,932
1.613328,2394,1613340,932
1.614004,2395,1614016,931
1.614680,2396,1614692,932
1.615356,2397,1615368,931
1.616028,2398,1616040,932
1.616704,2399,1616716,932
1.617380,2400,1617392,931
1.618056,2401,1618068,932
1.618728,2402,1618740,931
1.619404,2403,1619416,932
1.620080,2404,1620092,932
1.620756,2405,1620768,931
1.621428,2406,1621440,932
1.622104,2407,1622116,931
1.622780,2408,1622792,932
1.623456,2409,1623468,931
1.624128,2410,1624140,931
1.624804,2411,1624816,932
1.625480,2412,1625492,932
1.626156,2413,1626168,932
1.626828,2414,1626840,932
1.627504,2415,1627516,931
1.628180,2416,1628192,932
1.628856,2417,1628868,932
1.629528,2418,1629540,931
1.630212,2419,1630224,932
1.630880,2420,1630892,932
1.631556,2421,1631568,932
1.632228,2422,1632240,932
1.632904,2423,1632916,932
1.633580,2424,1633592,932
1.634256,2425,1634268,932
1.634928,2426,1634940,932
1.635604,2427,1635616,931
1.636280,2428,1636292,932
1.636956,2429,1636968,931
1.637628,2430,1637640,932
1.638304,2431,1638316,932
1.638980,2432,1638992,931
1.639656,2433,1639668,932
1.640328,2434,1640340,931
1.641004,2435,1641016,931
1.641680,2436,1641692,931
1.642356,2437,1642368,932
1.643028,2438,1643040,932
1.643704,2439,1643716,932
1.644380,2440,1644392,932
1.645056,2441,1645068,932
1.645728,2442,1645740,931
1.646404,2443,1646416,931
1.647080,2444,1647092,932
1.647756,2445,1647768,931
1.648428,2446,1648440,932
1.649104,2447,1649116,931
1.649780,2448,1649792,931
1.650456,2449,1650468,931
1.651128,2450,1651140,932
1.651804,2451,1651816,932
1.652480,2452,1652492,931
1.653156,2453,1653168,931
1.653828,2454,1653840,931
1.654504,2455,1654516,931
1.655180,2456,1655192,931
1.655856,2457,1655868,931
1.656528,2458,1656540,931
1.657204,2459,1657216,931
1.657880,2460,1657892,932
1.658556,2461,1658568,931
1.659228,2462,1659240,932
1.659912,2463,1659924,931
1.660580,2464,1660592,932
1.661256,2465,1661268,932
1.661928,2466,1661940,932
1.662604,2467,1662616,932
1.663280,2468,1663292,931
1.663956,2469,1663968,932
1.664628,2470,1664640,931
1.665304,2471,1665316,931
1.665980,2472,1665992,932
1.666656,2473,1666668,932
1.667328,2474,1667340,932
1.668004,2475,1668016,932
1.668680,2476,1668692,932
1.669356,2477,1669368,932
1.670028,2478,1670040,932
1.670704,2479,1670716,932
1.671380,2480,1671392,932
1.672056,2481,1672068,932
1.672728,2482,1672740,932
1.673404,2483,1673416,931
1.674080,2484,1674092,932
1.674756,2485,1674768,931
1.675428,2486,1675440,932
1.676104,2487,1676116,931
1.676780,2488,1676792,931
1.677456,2489,1677468,932
1.678128,2490,1678140,932
1.678804,2491,1678816,932
1.679480,2492,1679492,932
1.680156,2493,1680168,932
1.680828,2494,1680840,932
1.681504,2495,1681516,932
1.682180,2496,1682192,931
1.682856,2497,1682868,932
1.683528,2498,1683540,932
1.684204,2499,1684216,932
1.684880,2500,1684892,932
1.685556,2501,1685568,932
1.686228,2502,1686240,932
1.686904,2503,1686916,932
1.687580,2504,1687592,931
1.688256,2505,1688268,932
1.688928,2506,1688940,931
1.689608,2507,1689620,932
1.690280,2508,1690292,932
1.690956,2509,1690968,931
1.691628,2510,1691640,931
1.692304,2511,1692316,931
1.692980,2512,1692992,932
1.693656,2513,1693668,932
1.694328,2514,1694340,932
1.695004,2515,1695016,932
1.695680,2516,1695692,931
1.696356,2517,1696368,931
1.697028,2518,1697040,931
1.697704,2519,1697716,932
1.698380,2520,1698392,931
1.699056,2521,1699068,931
1.699728,2522,1699740,931
1.700404,2523,1700416,932
1.701080,2524,1701092,932
1.701756,2525,1701768,931
1.702428,2526,1702440,932
1.703104,2527,1703116,932
1.703780,2528,1703792,932
1.704456,2529,1704468,932
1.705128,2530,1705140,932
1.705804,2531,1705816,932
1.706480,2532,1706492,932
1.707156,2533,1707168,931
1.707828,2534,1707840,932
1.708504,2535,1708516,931
1.709180,2536,1709192,931
1.709856,2537,1709868,932
1.710528,2538,1710540,931
1.711204,2539,1711216,931
1.711880,2540,1711892,932
1.712556,2541,1712568,932
1.713228,2542,1713240,931
1.713904,2543,1713916,931
1.714580,2544,1714592,931
1.715256,2545,1715268,932
1.715928,2546,1715940,931
1.716604,2547,1716616,932
1.717280,2548,1717292,931
1.717956,2549,1717968,932
1.718628,2550,1718640,931
1.719304,2551,1719316,931
1.719980,2552,1719992,932
1.720656,2553,1720668,932
1.721328,2554,1721340,932
1.722004,2555,1722016,932
1.722680,2556,1722692,932
1.723356,2557,1723368,932
1.724028,2558,1724040,932
1.724704,2559,1724716,932
1.725380,2560,1725392,932
1.726056,2561,1726068,932
1.726728,2562,1726740,931
1.727404,2563,1727416,931
1.728080,2564,1728092,932
1.728756,2565,1728768,932
1.729428,2566,1729440,932
1.730104,2567,1730116,932
1.730780,2568,1730792,931
1.731456,2569,1731468,931
1.732128,2570,1732140,931
1.732804,2571,1732816,931
1.733480,2572,1733492,932
1.734156,2573,1734168,931
1.734828,2574,1734840,931
1.735504,2575,1735516,931
1.736180,2576,1736192,932
1.736856,2577,1736868,932
1.737528,2578,1737540,932
1.738204,2579,1738216,931
1.738880,2580,1738892,931
1.739556,2581,1739568,932
1.740228,2582,1740240,932
1.740904,2583,1740916,932
1.741580,2584,1741592,932
1.742256,2585,1742268,931
1.742928,2586,1742940,932
1.743604,2587,1743616,932
1.744280,2588,1744292,932
1.744956,2589,1744968,931
1.745628,2590,1745640,932
1.746304,2591,1746316,932
1.746980,2592,1746992,931
1.747656,2593,1747668,931
1.748328,2594,1748340,932
1.749004,2595,1749016,931
1.749680,2596,1749692,932
1.750356,2597,1750368,931
1.751036,2598,1751048,931
1.751704,2599,1751716,931
1.752380,2600,1752392,932
1.753056,2601,1753068,931
1.753728,2602,1753740,931
1.754404,2603,1754416,932
1.755080,2604,1755092,931
1.755756,2605,1755768,931
1.756428,2606,1756440,932
1.757104,2607,1757116,931
1.757780,2608,1757792,931
1.758456,2609,1758468,931
1.759128,2610,1759140,932
1.759804,2611,1759816,932
1.760480,2612,1760492,932
1.761156,2613,1761168,931
1.761828,2614,1761840,932
1.762504,2615,1762516,931
1.763180,2616,1763192,932
1.763856,2617,1763868,931
1.764528,2618,1764540,932
1.765204,2619,1765216,932
1.765880,2620,1765892,932
1.766556,2621,1766568,931
1.767228,2622,1767240,931
1.767904,2623,1767916,932
1.768580,2624,1768592,931
1.769256,2625,1769268,932
1.769928,2626,1769940,931
1.770604,2627,1770616,932
1.771280,2628,1771292,932
1.771956,2629,1771968,931
1.772628,2630,1772640,932
1.773304,2631,1773316,931
1.773980,2632,1773992,932
1.774656,2633,1774668,931
1.775328,2634,1775340,932
1.776004,2635,1776016,932
1.776680,2636,1776692,932
1.777356,2637,1777368,932
1.778028,2638,1778040,932
1.778704,2639,1778716,931
1.779380,2640,1779392,931
1.780056,2641,1780068,932
1.780736,2642,1780748,931
1.781404,2643,1781416,932
1.782080,2644,1782092,931
1.782756,2645,1782768,931
1.783428,2646,1783440,931
1.784104,2647,1784116,932
1.784780,2648,1784792,932
1.785456,2649,1785468,932
1.786128,2650,1786140,932
1.786804,2651,1786816,932
1.787480,2652,1787492,932
1.788156,2653,1788168,931
1.788828,2654,1788840,931
1.789504,2655,1789516,932
1.790180,2656,1790192,931
1.790856,2657,1790868,932
1.791528,2658,1791540,932
1.792204,2659,1792216,932
1.792880,2660,1792892,931
1.793556,2661,1793568,932
1.794228,2662,1794240,931
1.794904,2663,1794916,932
1.795580,2664,1795592,932
1.796256,2665,1796268,932
1.796928,2666,1796940,932
1.797604,2667,1797616,932
1.798280,2668,1798292,931
1.798956,2669,1798968,931
1.799628,2670,1799640,931
1.800304,2671,1800316,931
1.800980,2672,1800992,932
1.801656,2673,1801668,932
1.802328,2674,1802340,931
1.803004,2675,1803016,932
1.803680,2676,1803692,931
1.804356,2677,1804368,932
1.805028,2678,1805040,932
1.805704,2679,1805716,932
1.806380,2680,1806392,932
1.807056,2681,1807068,932
1.807728,2682,1807740,931
1.808404,2683,1808416,931
1.809080,2684,1809092,932
1.809756,2685,1809768,932
1.810436,2686,1810448,931
1.811104,2687,1811116,931
1.811780,2688,1811792,931
1.812456,2689,1812468,932
1.813128,2690,1813140,931
1.813804,2691,1813816,932
1.814480,2692,1814492,932
1.815156,2693,1815168,931
1.815828,2694,1815840,931
1.816504,2695,1816516,931
1.817180,2696,1817192,932
1.817856,2697,1817868,932
1.818528,2698,1818540,932
1.819204,2699,1819216,931
1.819880,2700,1819892,931
1.820556,2701,1820568,931
1.821228,2702,1821240,932
1.821904,2703,1821916,931
1.822580,2704,1822592,932
1.823256,2705,1823268,932
1.823928,2706,1823940,931
1.824604,2707,1824616,932
1.825280,2708,1825292,931
1.825956,2709,1825968,932
1.826628,2710,1826640,932
1.827304,2711,1827316,932
1.827980,2712,1827992,932
1.828656,2713,1828668,931
1.829328,2714,1829340,931
1.830004,2715,1830016,932
1.830680,2716,1830692,932
1.831356,2717,1831368,931
1.832028,2718,1832040,932
1.832704,2719,1832716,931
1.833380,2720,1833392,931
1.834056,2721,1834068,931
1.834728,2722,1834740,932
1.835404,2723,1835416,931
1.836080,2724,1836092,932
1.836756,2725,1836768,932
1.837428,2726,1837440,932
1.838104,2727,1838116,932
1.838780,2728,1838792,931
1.839456,2729,1839468,932
1.840136,2730,1840148,931
1.840804,2731,1840816,932
1.841480,2732,1841492,932
1.842156,2733,1842168,931
1.842828,2734,1842840,931
1.843504,2735,1843516,931
1.844180,2736,1844192,932
1.844856,2737,1844868,931
1.845528,2738,1845540,932
1.846204,2739,1846216,931
1.846880,2740,1846892,931
1.847556,2741,1847568,931
1.848228,2742,1848240,932
1.848904,2743,1848916,932
1.849580,2744,1849592,932
1.850256,2745,1850268,931
1.850928,2746,1850940,931
1.851604,2747,1851616,932
1.852280,2748,1852292,931
1.852956,2749,1852968,932
1.853628,2750,1853640,931
1.854304,2751,1854316,932
1.854980,2752,1854992,932
1.855656,2753,1855668,932
1.856328,2754,1856340,932
1.857004,2755,1857016,931
1.857680,2756,1857692,932
1.858356,2757,1858368,932
1.859028,2758,1859040,932
1.859704,2759,1859716,931
1.860380,2760,1860392,931
1.861056,2761,1861068,932
1.861728,2762,1861740,932
1.862404,2763,1862416,932
1.863080,2764,1863092,932
1.863756,2765,1863768,931
1.864428,2766,1864440,931
1.865104,2767,1865116,932
1.865780,2768,1865792,932
1.866456,2769,1866468,931
1.867128,2770,1867140,932
1.867804,2771,1867816,932
1.868480,2772,1868492,931
1.869156,2773,1869168,931
1.869832,2774,1869844,932
1.870504,2775,1870516,932
1.871180,2776,1871192,931
1.871856,2777,1871868,931
1.872528,2778,1872540,931
1.873204,2779,1873216,931
1.873880,2780,1873892,931
1.874556,2781,1874568,931
1.875228,2782,1875240,932
1.875904,2783,1875916,931
1.876580,2784,1876592,931
1.877256,2785,1877268,931
1.877928,2786,1877940,931
1.878604,2787,1878616,931
1.879280,2788,1879292,931
1.879956,2789,1879968,931
1.880628,2790,1880640,932
1.881304,2791,1881316,932
1.881980,2792,1881992,932
1.882656,2793,1882668,932
1.883328,2794,1883340,932
1.884004,2795,1884016,932
1.884680,2796,1884692,931
1.885356,2797,1885368,932
1.886028,2798,1886040,932
1.886704,2799,1886716,931
1.887380,2800,1887392,932
1.888056,2801,1888068,932
1.888728,2802,1888740,932
1.889404,2803,1889416,931
1.890080,2804,1890092,931
1.890756,2805,1890768,931
1.891428,2806,1891440,931
1.892104,2807,1892116,932
1.892780,2808,1892792,931
1.893456,2809,1893468,932
1.894128,2810,1894140,932
1.894804,2811,1894816,932
1.895480,2812,1895492,932
1.896156,2813,1896168,932
1.896828,2814,1896840,931
1.897504,2815,1897516,931
1.898180,2816,1898192,932
1.898856,2817,1898868,931
1.899528,2818,1899540,931
1.900204,2819,1900216,932
1.900880,2820,1900892,931
1.901556,2821,1901568,932
1.902228,2822,1902240,932
1.902904,2823,1902916,932
1.903580,2824,1903592,931
1.904256,2825,1904268,932
1.904928,2826,1904940,931
1.905604,2827,1905616,932
1.906280,2828,1906292,931
1.906956,2829,1906968,931
1.907628,2830,1907640,931
1.908304,2831,1908316,931
1.908980,2832,1908992,932
1.909656,2833,1909668,932
1.910328,2834,1910340,932
1.911004,2835,1911016,932
1.911680,2836,1911692,931
1.912356,2837,1912368,932
1.913028,2838,1913040,931
1.913704,2839,1913716,931
1.914380,2840,1914392,931
1.915056,2841,1915068,932
1.915728,2842,1915740,931
1.916404,2843,1916416,932
1.917080,2844,1917092,932
1.917756,2845,1917768,932
1.918428,2846,1918440,932
1.919104,2847,1919116,931
1.919780,2848,1919792,931
1.920456,2849,1920468,931
1.921128,2850,1921140,931
1.921804,2851,1921816,932
1.922480,2852,1922492,931
1.923156,2853,1923168,932
1.923828,2854,1923840,932
1.924504,2855,1924516,932
1.925180,2856,1925192,932
1.925856,2857,1925868,932
1.926528,2858,1926540,932
1.927204,2859,1927216,931
1.927880,2860,1927892,932
1.928556,2861,1928568,931
1.929228,2862,1929240,932
1.929904,2863,1929916,931
1.930580,2864,1930592,932
1.931260,2865,1931272,932
1.931928,2866,1931940,931
1.932604,2867,1932616,931
1.933280,2868,1933292,931
1.933956,2869,1933968,931
1.934628,2870,1934640,931
1.935304,2871,1935316,932
1.935980,2872,1935992,931
1.936656,2873,1936668,931
1.937328,2874,1937340,932
1.938004,2875,1938016,931
1.938680,2876,1938692,931
1.939356,2877,1939368,931
1.940028,2878,1940040,932
1.940704,2879,1940716,932
1.941380,2880,1941392,932
1.942056,2881,1942068,931
1.942728,2882,1942740,931
1.943404,2883,1943416,932
1.944080,2884,1944092,931
1.944756,2885,1944768,931
1.945428,2886,1945440,932
1.946104,2887,1946116,931
1.946780,2888,1946792,932
1.947456,2889,1947468,932
1.948128,2890,1948140,931
1.948804,2891,1948816,932
1.949480,2892,1949492,932
1.950156,2893,1950168,932
1.950828,2894,1950840,931
1.951504,2895,1951516,931
1.952180,2896,1952192,932
1.952856,2897,1952868,931
1.953528,2898,1953540,932
1.954204,2899,1954216,932
1.954880,2900,1954892,932
1.955556,2901,1955568,932
1.956228,2902,1956240,931
1.956904,2903,1956916,931
1.957580,2904,1957592,931
1.958256,2905,1958268,931
1.958928,2906,1958940,932
1.959604,2907,1959616,932
1.960280,2908,1960292,932
1.960960,2909,1960972,932
1.961628,2910,1961640,932
1.962304,2911,1962316,932
1.962980,2912,1962992,931
1.963656,2913,1963668,932
1.964328,2914,1964340,932
1.965004,2915,1965016,932
1.965680,2916,1965692,931
1.966356,2917,1966368,931
1.967028,2918,1967040,931
1.967704,2919,1967716,932
1.968380,2920,1968392,932
1.969056,2921,1969068,932
1.969728,2922,1969740,931
1.970404,2923,1970416,932
1.971080,2924,1971092,931
1.971756,2925,1971768,931
1.972428,2926,1972440,931
1.973104,2927,1973116,931
1.973780,2928,1973792,931
1.974456,2929,1974468,932
1.975128,2930,1975140,931
1.975804,2931,1975816,932
1.976480,2932,1976492,932
1.977156,2933,1977168,931
1.977828,2934,1977840,932
1.978504,2935,1978516,932
1.979180,2936,1979192,932
1.979856,2937,1979868,932
1.980528,2938,1980540,932
1.981204,2939,1981216,931
1.981880,2940,1981892,932
1.982556,2941,1982568,931
1.983228,2942,1983240,932
1.983904,2943,1983916,931
1.984580,2944,1984592,931
1.985256,2945,1985268,932
1.985928,2946,1985940,931
1.986604,2947,1986616,932
1.987280,2948,1987292,932
1.987956,2949,1987968,932
1.988628,2950,1988640,932
1.989304,2951,1989316,931
1.989980,2952,1989992,931
1.990660,2953,1990672,932
1.991328,2954,1991340,932
1.992004,2955,1992016,932
1.992680,2956,1992692,931
1.993356,2957,1993368,931
1.994028,2958,1994040,932
1.994704,2959,1994716,931
1.995380,2960,1995392,932
1.996056,2961,1996068,932
1.996728,2962,1996740,932
1.997404,2963,1997416,931
1.998080,2964,1998092,932
1.998756,2965,1998768,931
1.999428,2966,1999440,931
2.000104,2967,2000116,932
2.000780,2968,2000792,932
2.001456,2969,2001468,932
2.002128,2970,2002140,931
2.002804,2971,2002816,931
2.003480,2972,2003492,932
2.004156,2973,2004168,932
2.004828,2974,2004840,931
2.005504,2975,2005516,931
2.006180,2976,2006192,932
2.006856,2977,2006868,931
2.007528,2978,2007540,932
2.008204,2979,2008216,931
2.008880,2980,2008892,932
2.009556,2981,2009568,932
2.010228,2982,2010240,931
2.010904,2983,2010916,931
2.011580,2984,2011592,931
2.012256,2985,2012268,932
2.012928,2986,2012940,931
2.013604,2987,2013616,932
2.014280,2988,2014292,931
2.014956,2989,2014968,931
2.015628,2990,2015640,932
2.016304,2991,2016316,931
2.016980,2992,2016992,931
2.017656,2993,2017668,932
2.018328,2994,2018340,932
2.019004,2995,2019016,931
2.019680,2996,2019692,932
2.020360,2997,2020372,931
2.021028,2998,2021040,932
2.021704,2999,2021716,931
2.022380,3000,2022392,931
2.023056,3001,2023068,932
2.023728,3002,2023740,931
2.024404,3003,2024416,931
2.025080,3004,2025092,931
2.025756,3005,2025768,931
2.026428,3006,2026440,932
2.027104,3007,2027116,932
2.027780,3008,2027792,932
2.028456,3009,2028468,932
2.029128,3010,2029140,931
2.029804,3011,2029816,931
2.030480,3012,2030492,932
2.031156,3013,2031168,932
2.031828,3014,2031840,932
2.032504,3015,2032516,931
2.033180,3016,2033192,931
2.033856,3017,2033868,931
2.034528,3018,2034540,932
2.035204,3019,2035216,932
2.035880,3020,2035892,931
2.036556,3021,2036568,931
2.037228,3022,2037240,932
2.037904,3023,2037916,932
2.038580,3024,2038592,932
2.039256,3025,2039268,932
2.039928,3026,2039940,931
2.040604,3027,2040616,932
2.041280,3028,2041292,931
2.041956,3029,2041968,931
2.042628,3030,2042640,931
2.043304,3031,2043316,931
2.043980,3032,2043992,932
2.044656,3033,2044668,931
2.045328,3034,2045340,932
2.046004,3035,2046016,932
2.046680,3036,2046692,932
2.047356,3037,2047368,932
2.048028,3038,2048040,932
2.048704,3039,2048716,932
2.049380,3040,2049392,932
2.050056,3041,2050068,932
2.050728,3042,2050740,931
2.051404,3043,2051416,932
2.052080,3044,2052092,931
2.052756,3045,2052768,931
2.053428,3046,2053440,932
2.054104,3047,2054116,932
2.054780,3048,2054792,931
2.055456,3049,2055468,932
2.056128,3050,2056140,931
2.056804,3051,2056816,931
2.057480,3052,2057492,932
2.058156,3053,2058168,932
2.058828,3054,2058840,931
2.059504,3055,2059516,931
2.060180,3056,2060192,932
2.060856,3057,2060868,932
2.061528,3058,2061540,932
2.062204,3059,2062216,932
2.062880,3060,2062892,931
2.063556,3061,2063568,931
2.064228,3062,2064240,931
2.064904,3063,2064916,932
2.065580,3064,2065592,932
2.066256,3065,2066268,932
2.066928,3066,2066940,932
2.067604,3067,2067616,932
2.068280,3068,2068292,931
2.068956,3069,2068968,932
2.069628,3070,2069640,932
2.070304,3071,2070316,931
2.070980,3072,2070992,931
2.071656,3073,2071668,932
2.072328,3074,2072340,931
2.073004,3075,2073016,932
2.073680,3076,2073692,931
2.074356,3077,2074368,931
2.075028,3078,2075040,931
2.075704,3079,2075716,932
2.076380,3080,2076392,932
2.077056,3081,2077068,931
2.077728,3082,2077740,932
2.078404,3083,2078416,932
2.079080,3084,2079092,932
2.079756,3085,2079768,932
2.080428,3086,2080440,932
2.081104,3087,2081116,932
2.081784,3088,2081796,931
2.082456,3089,2082468,932
2.083128,3090,2083140,932
2.083804,3091,2083816,931
2.084480,3092,2084492,932
2.085156,3093,2085168,931
2.085828,3094,2085840,931
2.086504,3095,2086516,932
2.087180,3096,2087192,932
2.087856,3097,2087868,931
2.088528,3098,2088540,931
2.089204,3099,2089216,932
2.089880,3100,2089892,932
2.090556,3101,2090568,931
2.091228,3102,2091240,931
2.091904,3103,2091916,931
2.092580,3104,2092592,932
2.093256,3105,2093268,932
2.093928,3106,2093940,932
2.094604,3107,2094616,931
2.095280,3108,2095292,932
2.095956,3109,2095968,932
2.096628,3110,2096640,932
2.097304,3111,2097316,931
2.097980,3112,2097992,932
2.098656,3113,2098668,931
2.099328,3114,2099340,932
2.100004,3115,2100016,932
2.100680,3116,2100692,931
2.101356,3117,2101368,932
2.102028,3118,2102040,932
2.102704,3119,2102716,931
2.103380,3120,2103392,931
2.104056,3121,2104068,931
2.104728,3122,2104740,931
2.105404,3123,2105416,932
2.106080,3124,2106092,931
2.106756,3125,2106768,932
2.107428,3126,2107440,932
2.108104,3127,2108116,932
2.108780,3128,2108792,932
2.109456,3129,2109468,931
2.110128,3130,2110140,932
2.110804,3131,2110816,931
2.111484,3132,2111496,931
2.112156,3133,2112168,932
2.112828,3134,2112840,932
2.113504,3135,2113516,931
2.114180,3136,2114192,931
2.114856,3137,2114868,932
2.115528,3138,2115540,932
2.116204,3139,2116216,931
2.116880,3140,2116892,932
2.117556,3141,2117568,931
2.118228,3142,2118240,932
2.118904,3143,2118916,932
2.119580,3144,2119592,932
2.120256,3145,2120268,932
2.120928,3146,2120940,931
2.121604,3147,2121616,932
2.122280,3148,2122292,932
2.122956,3149,2122968,931
2.123628,3150,2123640,932
2.124304,3151,2124316,932
2.124980,3152,2124992,932
2.125656,3153,2125668,932
2.126328,3154,2126340,932
2.127004,3155,2127016,932
2.127680,3156,2127692,931
2.128356,3157,2128368,931
2.129028,3158,2129040,931
2.129704,3159,2129716,932
2.130380,3160,2130392,932
2.131056,3161,2131068,932
2.131728,3162,2131740,932
2.132404,3163,2132416,932
2.133080,3164,2133092,931
2.133756,3165,2133768,932
2.134428,3166,2134440,932
2.135104,3167,2135116,932
2.135780,3168,2135792,932
2.136456,3169,2136468,932
2.137128,3170,2137140,932
2.137804,3171,2137816,931
2.138480,3172,2138492,932
2.139156,3173,2139168,932
2.139828,3174,2139840,931
2.140504,3175,2140516,932
2.141184,3176,2141196,932
2.141856,3177,2141868,932
2.142528,3178,2142540,932
2.143204,3179,2143216,932
2.143880,3180,2143892,932
2.144556,3181,2144568,932
2.145228,3182,2145240,932
2.145904,3183,2145916,931
2.146580,3184,2146592,932
2.147256,3185,2147268,932
2.147928,3186,2147940,931
2.148604,3187,2148616,931
2.149280,3188,2149292,932
2.149956,3189,2149968,932
2.150628,3190,2150640,932
2.151304,3191,2151316,932
2.151980,3192,2151992,931
2.152656,3193,2152668,932
2.153328,3194,2153340,931
2.154004,3195,2154016,932
2.154680,3196,2154692,931
2.155356,3197,2155368,931
2.156028,3198,2156040,932
2.156704,3199,2156716,931
2.157380,3200,2157392,932
2.158056,3201,2158068,932
2.158728,3202,2158740,932
2.159404,3203,2159416,931
2.160080,3204,2160092,931
2.160756,3205,2160768,932
2.161428,3206,2161440,932
2.162104,3207,2162116,931
2.162780,3208,2162792,931
2.163456,3209,2163468,932
2.164128,3210,2164140,932
2.164804,3211,2164816,932
2.165480,3212,2165492,931
2.166156,3213,2166168,932
2.166828,3214,2166840,932
2.167504,3215,2167516,931
2.168180,3216,2168192,932
2.168856,3217,2168868,932
2.169528,3218,2169540,932
2.170204,3219,2170216,932
2.170884,3220,2170896,932
2.171556,3221,2171568,931
2.172228,3222,2172240,932
2.172904,3223,2172916,932
2.173580,3224,2173592,932
2.174256,3225,2174268,931
2.174928,3226,2174940,931
2.175604,3227,2175616,931
2.176280,3228,2176292,931
2.176956,3229,2176968,932
2.177628,3230,2177640,931
2.178304,3231,2178316,932
2.178980,3232,2178992,931
2.179656,3233,2179668,931
2.180328,3234,2180340,931
2.181004,3235,2181016,932
2.181680,3236,2181692,932
2.182356,3237,2182368,931
2.183028,3238,2183040,931
2.183704,3239,2183716,931
2.184380,3240,2184392,931
2.185056,3241,2185068,932
2.185728,3242,2185740,932
2.186404,3243,2186416,931
2.187080,3244,2187092,932
2.187756,3245,2187768,932
2.188428,3246,2188440,931
2.189104,3247,2189116,931
2.189780,3248,2189792,932
2.190456,3249,2190468,932
2.191128,3250,2191140,931
2.191804,3251,2191816,931
2.192480,3252,2192492,931
2.193156,3253,2193168,932
2.193828,3254,2193840,932
2.194504,3255,2194516,931
2.195180,3256,2195192,931
2.195856,3257,2195868,932
2.196528,3258,2196540,932
2.197204,3259,2197216,932
2.197880,3260,2197892,931
2.198556,3261,2198568,932
2.199228,3262,2199240,931
2.199904,3263,2199916,932
2.200584,3264,2200596,931
2.201256,3265,2201268,932
2.201928,3266,2201940,932
2.202604,3267,2202616,932
2.203280,3268,2203292,931
2.203956,3269,2203968,932
2.204628,3270,2204640,932
2.205304,3271,2205316,932
2.205980,3272,2205992,932
2.206656,3273,2206668,932
2.207328,3274,2207340,932
2.208004,3275,2208016,932
2.208680,3276,2208692,932
2.209356,3277,2209368,932
2.210028,3278,2210040,931
2.210704,3279,2210716,931
2.211380,3280,2211392,932
2.212056,3281,2212068,932
2.212728,3282,2212740,932
2.213404,3283,2213416,931
2.214080,3284,2214092,931
2.214756,3285,2214768,931
2.215428,3286,2215440,931
2.216104,3287,2216116,931
2.216780,3288,2216792,932
2.217456,3289,2217468,932
2.218128,3290,2218140,932
2.218804,3291,2218816,932
2.219480,3292,2219492,932
2.220156,3293,2220168,932
2.220828,3294,2220840,931
2.221504,3295,2221516,931
2.222180,3296,2222192,932
2.222856,3297,2222868,932
2.223528,3298,2223540,932
2.224204,3299,2224216,932
2.224880,3300,2224892,931
2.225556,3301,2225568,931
2.226228,3302,2226240,932
2.226904,3303,2226916,931
2.227580,3304,2227592,931
2.228256,3305,2228268,931
2.228928,3306,2228940,932
2.229604,3307,2229616,932
2.230280,3308,2230292,932
2.230956,3309,2230968,932
2.231628,3310,2231640,932
2.232304,3311,2232316,931
2.232980,3312,2232992,931
2.233656,3313,2233668,932
2.234328,3314,2234340,932
2.235004,3315,2235016,931
2.235680,3316,2235692,932
2.236356,3317,2236368,931
2.237028,3318,2237040,932
2.237704,3319,2237716,932
2.238380,3320,2238392,932
2.239056,3321,2239068,932
2.239728,3322,2239740,932
2.240404,3323,2240416,932
2.241080,3324,2241092,931
2.241756,3325,2241768,931
2.242428,3326,2242440,932
2.243104,3327,2243116,931
2.243780,3328,2243792,932
2.244456,3329,2244468,931
2.245128,3330,2245140,931
2.245804,3331,2245816,931
2.246480,3332,2246492,932
2.247156,3333,2247168,931
2.247828,3334,2247840,931
2.248504,3335,2248516,931
2.249180,3336,2249192,931
2.249856,3337,2249868,932
2.250528,3338,2250540,931
2.251204,3339,2251216,932
2.251880,3340,2251892,932
2.252556,3341,2252568,932
2.253228,3342,2253240,931
2.253904,3343,2253916,932
2.254580,3344,2254592,932
2.255256,3345,2255268,932
2.255928,3346,2255940,932
2.256604,3347,2256616,932
2.257280,3348,2257292,932
2.257956,3349,2257968,932
2.258628,3350,2258640,932
2.259304,3351,2259316,932
2.259980,3352,2259992,932
2.260656,3353,2260668,931
2.261328,3354,2261340,932
2.262012,3355,2262024,932
2.262680,3356,2262692,931
2.263356,3357,2263368,932
2.264028,3358,2264040,932
2.264704,3359,2264716,931
2.265380,3360,2265392,932
2.266056,3361,2266068,931
2.266728,3362,2266740,931
2.267404,3363,2267416,931
2.268080,3364,2268092,932
2.268756,3365,2268768,932
2.269428,3366,2269440,931
2.270104,3367,2270116,931
2.270780,3368,2270792,931
2.271456,3369,2271468,931
2.272128,3370,2272140,932
2.272804,3371,2272816,931
2.273480,3372,2273492,932
2.274156,3373,2274168,931
2.274828,3374,2274840,932
2.275504,3375,2275516,931
2.276180,3376,2276192,932
2.276856,3377,2276868,932
2.277528,3378,2277540,931
2.278204,3379,2278216,932
2.278880,3380,2278892,931
2.279556,3381,2279568,932
2.280228,3382,2280240,932
2.280904,3383,2280916,931
2.281580,3384,2281592,932
2.282256,3385,2282268,932
2.282928,3386,2282940,932
2.283604,3387,2283616,931
2.284280,3388,2284292,932
2.284956,3389,2284968,932
2.285628,3390,2285640,932
2.286304,3391,2286316,932
2.286980,3392,2286992,932
2.287656,3393,2287668,931
2.288328,3394,2288340,931
2.289004,3395,2289016,931
2.289680,3396,2289692,932
2.290356,3397,2290368,932
2.291028,3398,2291040,931
2.291712,3399,2291724,932
2.292380,3400,2292392,931
2.293056,3401,2293068,931
2.293728,3402,2293740,931
2.294404,3403,2294416,931
2.295080,3404,2295092,931
2.295756,3405,2295768,932
2.296428,3406,2296440,931
2.297104,3407,2297116,931
2.297780,3408,2297792,932
2.298456,3409,2298468,932
2.299128,3410,2299140,932
2.299804,3411,2299816,932
2.300480,3412,2300492,931
2.301156,3413,2301168,932
2.301828,3414,2301840,932
2.302504,3415,2302516,932
2.303180,3416,2303192,931
2.303856,3417,2303868,932
2.304528,3418,2304540,932
2.305204,3419,2305216,932
2.305880,3420,2305892,932
2.306556,3421,2306568,932
2.307228,3422,2307240,932
2.307904,3423,2307916,931
2.308580,3424,2308592,931
2.309256,3425,2309268,931
2.309928,3426,2309940,931
2.310604,3427,2310616,931
2.311280,3428,2311292,931
2.311956,3429,2311968,932
2.312628,3430,2312640,931
2.313304,3431,2313316,931
2.313980,3432,2313992,932
2.314656,3433,2314668,931
2.315328,3434,2315340,932
2.316004,3435,2316016,931
2.316680,3436,2316692,931
2.317356,3437,2317368,932
2.318028,3438,2318040,932
2.318704,3439,2318716,931
2.319380,3440,2319392,931
2.320056,3441,2320068,932
2.320728,3442,2320740,932
2.321412,3443,2321424,931
2.322080,3444,2322092,932
2.322756,3445,2322768,931
2.323428,3446,2323440,931
2.324104,3447,2324116,932
2.324780,3448,2324792,932
2.325456,3449,2325468,932
2.326128,3450,2326140,931
2.326804,3451,2326816,931
2.327480,3452,2327492,932
2.328156,3453,2328168,932
2.328828,3454,2328840,931
2.329504,3455,2329516,932
2.330180,3456,2330192,932
2.330856,3457,2330868,932
2.331528,3458,2331540,931
2.332204,3459,2332216,931
2.332880,3460,2332892,932
2.333556,3461,2333568,931
2.334228,3462,2334240,932
2.334904,3463,2334916,932
2.335580,3464,2335592,931
2.336256,3465,2336268,932
2.336928,3466,2336940,931
2.337604,3467,2337616,931
2.338280,3468,2338292,932
2.338956,3469,2338968,932
2.339628,3470,2339640,932
2.340304,3471,2340316,931
2.340980,3472,2340992,932
2.341656,3473,2341668,931
2.342328,3474,2342340,931
2.343004,3475,2343016,932
2.343680,3476,2343692,931
2.344356,3477,2344368,932
2.345028,3478,2345040,932
2.345704,3479,2345716,932
2.346380,3480,2346392,932
2.347056,3481,2347068,932
2.347728,3482,2347740,932
2.348404,3483,2348416,932
2.349080,3484,2349092,932
2.349756,3485,2349768,931
2.350428,3486,2350440,931
2.351112,3487,2351124,931
2.351780,3488,2351792,932
2.352456,3489,2352468,932
2.353128,3490,2353140,932
2.353804,3491,2353816,932
2.354480,3492,2354492,931
2.355156,3493,2355168,932
2.355828,3494,2355840,931
2.356504,3495,2356516,931
2.357180,3496,2357192,931
2.357856,3497,2357868,932
2.358528,3498,2358540,932
2.359204,3499,2359216,931
2.359880,3500,2359892,932
2.360556,3501,2360568,932
2.361228,3502,2361240,931
2.361904,3503,2361916,931
2.362580,3504,2362592,932
2.363256,3505,2363268,932
2.363928,3506,2363940,932
2.364604,3507,2364616,932
2.365280,3508,2365292,932
2.365956,3509,2365968,932
2.366628,3510,2366640,932
2.367304,3511,2367316,931
2.367980,3512,2367992,932
2.368656,3513,2368668,931
2.369328,3514,2369340,932
2.370004,3515,2370016,932
2.370680,3516,2370692,931
2.371356,3517,2371368,932
2.372028,3518,2372040,932
2.372704,3519,2372716,931
2.373380,3520,2373392,932
2.374056,3521,2374068,932
2.374728,3522,2374740,931
2.375404,3523,2375416,932
2.376080,3524,2376092,931
2.376756,3525,2376768,931
2.377428,3526,2377440,931
2.378104,3527,2378116,931
2.378780,3528,2378792,932
2.379456,3529,2379468,931
2.380128,3530,2380140,931
2.380808,3531,2380820,931
2.381480,3532,2381492,932
2.382156,3533,2382168,931
2.382828,3534,2382840,932
2.383504,3535,2383516,931
2.384180,3536,2384192,931
2.384856,3537,2384868,932
2.385528,3538,2385540,932
2.386204,3539,2386216,932
2.386880,3540,2386892,932
2.387556,3541,2387568,932
2.388228,3542,2388240,931
2.388904,3543,2388916,931
2.389580,3544,2389592,932
2.390256,3545,2390268,932
2.390928,3546,2390940,932
2.391604,3547,2391616,932
2.392280,3548,2392292,932
2.392956,3549,2392968,932
2.393628,3550,2393640,932
2.394304,3551,2394316,931
2.394980,3552,2394992,932
2.395656,3553,2395668,932
2.396328,3554,2396340,932
2.397004,3555,2397016,932
2.397680,3556,2397692,931
2.398356,3557,2398368,932
2.399028,3558,2399040,931
2.399704,3559,2399716,932
2.400380,3560,2400392,931
2.401056,3561,2401068,932
2.401728,3562,2401740,931
2.402404,3563,2402416,932
2.403080,3564,2403092,931
2.403756,3565,2403768,932
2.404428,3566,2404440,932
2.405104,3567,2405116,931
2.405780,3568,2405792,932
2.406456,3569,2406468,931
2.407128,3570,2407140,931
2.407804,3571,2407816,932
2.408480,3572,2408492,932
2.409156,3573,2409168,931
2.409828,3574,2409840,931
2.410504,3575,2410516,931
2.411180,3576,2411192,931
2.411856,3577,2411868,932
2.412528,3578,2412540,931
2.413204,3579,2413216,931
2.413880,3580,2413892,931
2.414556,3581,2414568,932
2.415228,3582,2415240,932
2.415904,3583,2415916,932
2.416580,3584,2416592,932
2.417256,3585,2417268,931
2.417928,3586,2417940,932
2.418604,3587,2418616,931
2.419280,3588,2419292,932
2.419956,3589,2419968,932
2.420628,3590,2420640,932
2.421304,3591,2421316,931
2.421980,3592,2421992,932
2.422656,3593,2422668,932
2.423328,3594,2423340,931
2.424004,3595,2424016,932
2.424680,3596,2424692,932
2.425356,3597,2425368,932
2.426028,3598,2426040,931
2.426704,3599,2426716,931
2.427380,3600,2427392,931
2.428056,3601,2428068,931
2.428728,3602,2428740,932
2.429404,3603,2429416,932
2.430080,3604,2430092,931
2.430756,3605,2430768,932
2.431428,3606,2431440,932
2.432104,3607,2432116,931
2.432780,3608,2432792,931
2.433456,3609,2433468,931
2.434128,3610,2434140,932
2.434804,3611,2434816,932
2.435480,3612,2435492,931
2.436156,3613,2436168,931
2.436828,3614,2436840,932
2.437504,3615,2437516,931
2.438180,3616,2438192,932
2.438856,3617,2438868,932
2.439528,3618,2439540,931
2.440204,3619,2440216,932
2.440880,3620,2440892,931
2.441556,3621,2441568,932
2.442236,3622,2442248,932
2.442904,3623,2442916,931
2.443580,3624,2443592,931
2.444256,3625,2444268,931
2.444928,3626,2444940,932
2.445604,3627,2445616,932
2.446280,3628,2446292,931
2.446956,3629,2446968,931
2.447628,3630,2447640,932
2.448304,3631,2448316,931
2.448980,3632,2448992,932
2.449656,3633,2449668,932
2.450328,3634,2450340,932
2.451004,3635,2451016,932
2.451680,3636,2451692,931
2.452356,3637,2452368,932
2.453028,3638,2453040,932
2.453704,3639,2453716,932
2.454380,3640,2454392,931
2.455056,3641,2455068,931
2.455728,3642,2455740,931
2.456404,3643,2456416,931
2.457080,3644,2457092,931
2.457756,3645,2457768,932
2.458428,3646,2458440,931
2.459104,3647,2459116,931
2.459780,3648,2459792,932
2.460456,3649,2460468,931
2.461128,3650,2461140,932
2.461804,3651,2461816,931
2.462480,3652,2462492,931
2.463156,3653,2463168,932
2.463828,3654,2463840,932
2.464504,3655,2464516,931
2.465180,3656,2465192,932
2.465856,3657,2465868,931
2.466528,3658,2466540,931
2.467204,3659,2467216,931
2.467880,3660,2467892,932
2.468556,3661,2468568,932
2.469228,3662,2469240,931
2.469904,3663,2469916,931
2.470580,3664,2470592,931
2.471256,3665,2471268,931
2.471936,3666,2471948,931
2.472604,3667,2472616,932
2.473280,3668,2473292,932
2.473956,3669,2473968,931
2.474628,3670,2474640,931
2.475304,3671,2475316,931
2.475980,3672,2475992,932
2.476656,3673,2476668,931
2.477328,3674,2477340,932
2.478004,3675,2478016,932
2.478680,3676,2478692,932
2.479356,3677,2479368,931
2.480028,3678,2480040,932
2.480704,3679,2480716,931
2.481380,3680,2481392,932
2.482056,3681,2482068,931
2.482728,3682,2482740,931
2.483404,3683,2483416,932
2.484080,3684,2484092,931
2.484756,3685,2484768,932
2.485428,3686,2485440,931
2.486104,3687,2486116,931
2.486780,3688,2486792,931
2.487456,3689,2487468,931
2.488128,3690,2488140,932
2.488804,3691,2488816,932
2.489480,3692,2489492,932
2.490156,3693,2490168,931
2.490828,3694,2490840,932
2.491504,3695,2491516,931
2.492180,3696,2492192,932
2.492856,3697,2492868,932
2.493528,3698,2493540,931
2.494204,3699,2494216,932
2.494880,3700,2494892,931
2.495556,3701,2495568,932
2.496228,3702,2496240,931
2.496904,3703,2496916,931
2.497580,3704,2497592,932
2.498256,3705,2498268,932
2.498928,3706,2498940,932
2.499604,3707,2499616,931
2.500280,3708,2500292,931
2.500956,3709,2500968,931
2.501636,3710,2501648,932
2.502304,3711,2502316,932
2.502980,3712,2502992,932
2.503656,3713,2503668,932
2.504328,3714,2504340,932
2.505004,3715,2505016,931
2.505680,3716,2505692,932
2.506356,3717,2506368,932
2.507028,3718,2507040,932
2.507704,3719,2507716,932
2.508380,3720,2508392,932
2.509056,3721,2509068,931
2.509728,3722,2509740,932
2.510404,3723,2510416,932
2.511080,3724,2511092,932
2.511756,3725,2511768,932
2.512428,3726,2512440,932
2.513104,3727,2513116,931
2.513780,3728,2513792,931
2.514456,3729,2514468,932
2.515128,3730,2515140,931
2.515804,3731,2515816,932
2.516480,3732,2516492,931
2.517156,3733,2517168,931
2.517828,3734,2517840,931
2.518504,3735,2518516,931
2.519180,3736,2519192,931
2.519856,3737,2519868,932
2.520528,3738,2520540,932
2.521204,3739,2521216,932
2.521880,3740,2521892,932
2.522556,3741,2522568,931
2.523228,3742,2523240,932
2.523904,3743,2523916,931
2.524580,3744,2524592,931
2.525256,3745,2525268,932
2.525928,3746,2525940,931
2.526604,3747,2526616,932
2.527280,3748,2527292,932
2.527956,3749,2527968,932
2.528628,3750,2528640,931
2.529304,3751,2529316,932
2.529980,3752,2529992,931
2.530656,3753,2530668,932
2.531336,3754,2531348,932
2.532004,3755,2532016,932
2.532680,3756,2532692,932
2.533356,3757,2533368,932
2.534028,3758,2534040,932
2.534704,3759,2534716,931
2.535380,3760,2535392,932
2.536056,3761,2536068,932
2.536728,3762,2536740,932
2.537404,3763,2537416,931
2.538080,3764,2538092,931
2.538756,3765,2538768,932
2.539428,3766,2539440,932
2.540104,3767,2540116,931
2.540780,3768,2540792,932
2.541456,3769,2541468,931
2.542128,3770,2542140,932
2.542804,3771,2542816,932
2.543480,3772,2543492,932
2.544156,3773,2544168,932
2.544828,3774,2544840,932
2.545504,3775,2545516,932
2.546180,3776,2546192,931
2.546856,3777,2546868,931
2.547528,3778,2547540,931
2.548204,3779,2548216,932
2.548880,3780,2548892,931
2.549556,3781,2549568,931
2.550228,3782,2550240,932
2.550904,3783,2550916,931
2.551580,3784,2551592,932
2.552256,3785,2552268,932
2.552928,3786,2552940,932
2.553604,3787,2553616,932
2.554280,3788,2554292,931
2.554956,3789,2554968,932
2.555628,3790,2555640,932
2.556304,3791,2556316,931
2.556980,3792,2556992,931
2.557656,3793,2557668,932
2.558328,3794,2558340,931
2.559004,3795,2559016,931
2.559680,3796,2559692,932
2.560356,3797,2560368,932
2.561032,3798,2561044,931
2.561704,3799,2561716,932
2.562380,3800,2562392,932
2.563056,3801,2563068,931
2.563728,3802,2563740,932
2.564404,3803,2564416,932
2.565080,3804,2565092,931
2.565756,3805,2565768,932
2.566428,3806,2566440,931
2.567104,3807,2567116,931
2.567780,3808,2567792,931
2.568456,3809,2568468,931
2.569128,3810,2569140,932
2.569804,3811,2569816,932
2.570480,3812,2570492,932
2.571156,3813,2571168,932
2.571828,3814,2571840,932
2.572504,3815,2572516,932
2.573180,3816,2573192,931
2.573856,3817,2573868,932
2.574528,3818,2574540,931
2.575204,3819,2575216,932
2.575880,3820,2575892,931
2.576556,3821,2576568,931
2.577228,3822,2577240,932
2.577904,3823,2577916,931
2.578580,3824,2578592,931
2.579256,3825,2579268,932
2.579928,3826,2579940,932
2.580604,3827,2580616,932
2.581280,3828,2581292,932
2.581956,3829,2581968,931
2.582628,3830,2582640,932
2.583304,3831,2583316,931
2.583980,3832,2583992,932
2.584656,3833,2584668,932
2.585328,3834,2585340,931
2.586004,3835,2586016,932
2.586680,3836,2586692,932
2.587356,3837,2587368,932
2.588028,3838,2588040,931
2.588704,3839,2588716,931
2.589380,3840,2589392,931
2.590056,3841,2590068,932
2.590728,3842,2590740,932
2.591404,3843,2591416,932
2.592080,3844,2592092,931
2.592756,3845,2592768,931
2.593428,3846,2593440,931
2.594104,3847,2594116,931
2.594780,3848,2594792,932
2.595456,3849,2595468,932
2.596128,3850,2596140,932
2.596804,3851,2596816,932
2.597480,3852,2597492,932
2.598156,3853,2598168,932
2.598828,3854,2598840,932
2.599504,3855,2599516,931
2.600180,3856,2600192,931
2.600856,3857,2600868,932
2.601528,3858,2601540,932
2.602204,3859,2602216,931
2.602880,3860,2602892,931
2.603556,3861,2603568,932
2.604228,3862,2604240,931
2.604904,3863,2604916,931
2.605580,3864,2605592,932
2.606256,3865,2606268,931
2.606928,3866,2606940,932
2.607604,3867,2607616,932
2.608280,3868,2608292,931
2.608956,3869,2608968,932
2.609628,3870,2609640,932
2.610304,3871,2610316,931
2.610980,3872,2610992,931
2.611656,3873,2611668,932
2.612328,3874,2612340,932
2.613004,3875,2613016,931
2.613680,3876,2613692,931
2.614356,3877,2614368,931
2.615028,3878,2615040,931
2.615704,3879,2615716,931
2.616380,3880,2616392,932
2.617056,3881,2617068,931
2.617728,3882,2617740,932
2.618404,3883,2618416,931
2.619080,3884,2619092,932
2.619756,3885,2619768,932
2.620428,3886,2620440,932
2.621104,3887,2621116,931
2.621780,3888,2621792,932
2.622460,3889,2622472,932
2.623128,3890,2623140,932
2.623804,3891,2623816,932
2.624480,3892,2624492,932
2.625156,3893,2625168,931
2.625828,3894,2625840,932
2.626504,3895,2626516,932
2.627180,3896,2627192,931
2.627856,3897,2627868,931
2.628528,3898,2628540,931
2.629204,3899,2629216,932
2.629880,3900,2629892,931
2.630556,3901,2630568,931
2.631228,3902,2631240,931
2.631904,3903,2631916,931
2.632580,3904,2632592,931
2.633256,3905,2633268,932
2.633928,3906,2633940,932
2.634604,3907,2634616,932
2.635280,3908,2635292,932
2.635956,3909,2635968,932
2.636628,3910,2636640,932
2.637304,3911,2637316,932
2.637980,3912,2637992,932
2.638656,3913,2638668,931
2.639328,3914,2639340,932
2.640004,3915,2640016,932
2.640680,3916,2640692,932
2.641356,3917,2641368,931
2.642028,3918,2642040,932
2.642704,3919,2642716,931
2.643380,3920,2643392,931
2.644056,3921,2644068,932
2.644728,3922,2644740,931
2.645404,3923,2645416,932
2.646080,3924,2646092,932
2.646756,3925,2646768,931
2.647428,3926,2647440,932
2.648104,3927,2648116,931
2.648780,3928,2648792,931
2.649456,3929,2649468,932
2.650128,3930,2650140,932
2.650804,3931,2650816,931
2.651480,3932,2651492,932
2.652160,3933,2652172,932
2.652828,3934,2652840,931
2.653504,3935,2653516,931
2.654180,3936,2654192,931
2.654856,3937,2654868,931
2.655528,3938,2655540,932
2.656204,3939,2656216,932
2.656880,3940,2656892,931
2.657556,3941,2657568,931
2.658228,3942,2658240,931
2.658904,3943,2658916,931
2.659580,3944,2659592,932
2.660256,3945,2660268,932
2.660928,3946,2660940,932
2.661604,3947,2661616,931
2.662280,3948,2662292,932
2.662956,3949,2662968,931
2.663628,3950,2663640,932
2.664304,3951,2664316,931
2.664980,3952,2664992,932
2.665656,3953,2665668,932
2.666328,3954,2666340,932
2.667004,3955,2667016,932
2.667680,3956,2667692,932
2.668356,3957,2668368,932
2.669028,3958,2669040,932
2.669704,3959,2669716,932
2.670380,3960,2670392,932
2.671056,3961,2671068,931
2.671728,3962,2671740,931
2.672404,3963,2672416,931
2.673080,3964,2673092,932
2.673756,3965,2673768,931
2.674428,3966,2674440,931
2.675104,3967,2675116,932
2.675780,3968,2675792,931
2.676456,3969,2676468,932
2.677128,3970,2677140,932
2.677804,3971,2677816,932
2.678480,3972,2678492,932
2.679156,3973,2679168,932
2.679828,3974,2679840,932
2.680504,3975,2680516,932
2.681180,3976,2681192,931
2.681860,3977,2681872,932
2.682528,3978,2682540,931
2.683204,3979,2683216,932
2.683880,3980,2683892,931
2.684556,3981,2684568,932
2.685228,3982,2685240,932
2.685904,3983,2685916,931
2.686580,3984,2686592,932
2.687256,3985,2687268,931
2.687928,3986,2687940,931
2.688604,3987,2688616,931
2.689280,3988,2689292,931
2.689956,3989,2689968,932
2.690628,3990,2690640,931
2.691304,3991,2691316,932
2.691980,3992,2691992,931
2.692656,3993,2692668,932
2.693328,3994,2693340,931
2.694004,3995,2694016,931
2.694680,3996,2694692,931
2.695356,3997,2695368,932
2.696028,3998,2696040,931
2.696704,3999,2696716,931
2.697380,4000,2697392,932
2.698056,4001,2698068,932
2.698728,4002,2698740,932
2.699404,4003,2699416,932
2.700080,4004,2700092,932
2.700756,4005,2700768,932
2.701428,4006,2701440,931
2.702104,4007,2702116,932
2.702780,4008,2702792,931
2.703456,4009,2703468,931
2.704128,4010,2704140,932
2.704804,4011,2704816,932
2.705480,4012,2705492,932
2.706156,4013,2706168,932
2.706828,4014,2706840,932
2.707504,4015,2707516,932
2.708180,4016,2708192,932
2.708856,4017,2708868,932
2.709528,4018,2709540,931
2.710204,4019,2710216,932
2.710880,4020,2710892,931
2.711560,4021,2711572,932
2.712228,4022,2712240,931
2.712904,4023,2712916,932
2.713580,4024,2713592,932
2.714256,4025,2714268,932
2.714928,4026,2714940,932
2.715604,4027,2715616,931
2.716280,4028,2716292,932
2.716956,4029,2716968,931
2.717628,4030,2717640,932
2.718304,4031,2718316,931
2.718980,4032,2718992,932
2.719656,4033,2719668,932
2.720328,4034,2720340,932
2.721004,4035,2721016,932
2.721680,4036,2721692,932
2.722356,4037,2722368,931
2.723028,4038,2723040,932
2.723704,4039,2723716,931
2.724380,4040,2724392,931
2.725056,4041,2725068,932
2.725728,4042,2725740,931
2.726404,4043,2726416,932
2.727080,4044,2727092,932
2.727756,4045,2727768,931
2.728428,4046,2728440,931
2.729104,4047,2729116,931
2.729780,4048,2729792,931
2.730456,4049,2730468,931
2.731128,4050,2731140,932
2.731804,4051,2731816,932
2.732480,4052,2732492,932
2.733156,4053,2733168,932
2.733828,4054,2733840,932
2.734504,4055,2734516,932
2.735180,4056,2735192,932
2.735856,4057,2735868,931
2.736528,4058,2736540,932
2.737204,4059,2737216,931
2.737880,4060,2737892,932
2.738556,4061,2738568,931
2.739228,4062,2739240,931
2.739904,4063,2739916,932
2.740580,4064,2740592,931
2.741256,4065,2741268,932
2.741928,4066,2741940,931
2.742604,4067,2742616,932
2.743280,4068,2743292,932
2.743956,4069,2743968,932
2.744628,4070,2744640,932
2.745304,4071,2745316,931
2.745980,4072,2745992,932
2.746656,4073,2746668,932
2.747328,4074,2747340,932
2.748004,4075,2748016,931
2.748680,4076,2748692,932
2.749356,4077,2749368,932
2.750028,4078,2750040,932
2.750704,4079,2750716,931
2.751380,4080,2751392,931
2.752056,4081,2752068,932
2.752728,4082,2752740,931
2.753404,4083,2753416,932
2.754080,4084,2754092,931
2.754756,4085,2754768,931
2.755428,4086,2755440,932
2.756104,4087,2756116,932
2.756780,4088,2756792,932
2.757456,4089,2757468,932
2.758128,4090,2758140,932
2.758804,4091,2758816,932
2.759480,4092,2759492,932
2.760156,4093,2760168,932
2.760828,4094,2760840,931
2.761504,4095,2761516,931
2.762180,4096,2762192,931
2.762856,4097,2762868,932
2.763528,4098,2763540,931
2.764204,4099,2764216,932
2.764880,4100,2764892,932
2.765556,4101,2765568,932
2.766228,4102,2766240,931
2.766904,4103,2766916,931
2.767580,4104,2767592,931
2.768256,4105,2768268,932
2.768928,4106,2768940,932
2.769604,4107,2769616,932
2.770280,4108,2770292,931
2.770956,4109,2770968,932
2.771628,4110,2771640,932
2.772304,4111,2772316,931
2.772984,4112,2772996,931
2.773656,4113,2773668,932
2.774328,4114,2774340,932
2.775004,4115,2775016,931
2.775680,4116,2775692,932
2.776356,4117,2776368,931
2.777028,4118,2777040,931
2.777704,4119,2777716,932
2.778380,4120,2778392,932
2.779056,4121,2779068,931
2.779728,4122,2779740,932
2.780404,4123,2780416,932
2.781080,4124,2781092,932
2.781756,4125,2781768,932
2.782428,4126,2782440,932
2.783104,4127,2783116,932
2.783780,4128,2783792,932
2.784456,4129,2784468,932
2.785128,4130,2785140,931
2.785804,4131,2785816,932
2.786480,4132,2786492,931
2.787156,4133,2787168,932
2.787828,4134,2787840,932
2.788504,4135,2788516,931
2.789180,4136,2789192,931
2.789856,4137,2789868,932
2.790528,4138,2790540,932
2.791204,4139,2791216,932
2.791880,4140,2791892,931
2.792556,4141,2792568,931
2.793228,4142,2793240,931
2.793904,4143,2793916,932
2.794580,4144,2794592,932
2.795256,4145,2795268,931
2.795928,4146,2795940,932
2.796604,4147,2796616,932
2.797280,4148,2797292,931
2.797956,4149,2797968,931
2.798628,4150,2798640,931
2.799304,4151,2799316,932
2.799980,4152,2799992,931
2.800656,4153,2800668,932
2.801328,4154,2801340,932
2.802004,4155,2802016,931
2.802684,4156,2802696,931
2.803356,4157,2803368,931
2.804028,4158,2804040,932
2.804704,4159,2804716,931
2.805380,4160,2805392,932
2.806056,4161,2806068,932
2.806728,4162,2806740,931
2.807404,4163,2807416,932
2.808080,4164,2808092,931
2.808756,4165,2808768,932
2.809428,4166,2809440,931
2.810104,4167,2810116,931
2.810780,4168,2810792,931
2.811456,4169,2811468,931
2.812128,4170,2812140,932
2.812804,4171,2812816,931
2.813480,4172,2813492,932
2.814156,4173,2814168,932
2.814828,4174,2814840,932
2.815504,4175,2815516,931
2.816180,4176,2816192,932
2.816856,4177,2816868,932
2.817528,4178,2817540,932
2.818204,4179,2818216,931
2.818880,4180,2818892,932
2.819556,4181,2819568,931
2.820228,4182,2820240,931
2.820904,4183,2820916,932
2.821580,4184,2821592,932
2.822256,4185,2822268,932
2.822928,4186,2822940,932
2.823604,4187,2823616,932
2.824280,4188,2824292,931
2.824956,4189,2824968,932
2.825628,4190,2825640,931
2.826304,4191,2826316,932
2.826980,4192,2826992,931
2.827656,4193,2827668,931
2.828328,4194,2828340,932
2.829004,4195,2829016,932
2.829680,4196,2829692,932
2.830356,4197,2830368,932
2.831028,4198,2831040,932
2.831704,4199,2831716,932
2.832384,4200,2832396,931
2.833056,4201,2833068,931
2.833728,4202,2833740,931
2.834404,4203,2834416,931
2.835080,4204,2835092,932
2.835756,4205,2835768,932
2.836428,4206,2836440,931
2.837104,4207,2837116,931
2.837780,4208,2837792,932
2.838456,4209,2838468,932
2.839128,4210,2839140,931
2.839804,4211,2839816,932
2.840480,4212,2840492,932
2.841156,4213,2841168,931
2.841828,4214,2841840,931
2.842504,4215,2842516,931
2.843180,4216,2843192,932
2.843856,4217,2843868,932
2.844528,4218,2844540,931
2.845204,4219,2845216,931
2.845880,4220,2845892,932
2.846556,4221,2846568,932
2.847228,4222,2847240,932
2.847904,4223,2847916,931
2.848580,4224,2848592,932
2.849256,4225,2849268,932
2.849928,4226,2849940,932
2.850604,4227,2850616,931
2.851280,4228,2851292,931
2.851956,4229,2851968,932
2.852628,4230,2852640,932
2.853304,4231,2853316,932
2.853980,4232,2853992,932
2.854656,4233,2854668,931
2.855328,4234,2855340,932
2.856004,4235,2856016,932
2.856680,4236,2856692,931
2.857356,4237,2857368,931
2.858028,4238,2858040,931
2.858704,4239,2858716,931
2.859380,4240,2859392,932
2.860056,4241,2860068,932
2.860728,4242,2860740,931
2.861404,4243,2861416,932
2.862084,4244,2862096,932
2.862756,4245,2862768,931
2.863428,4246,2863440,932
2.864104,4247,2864116,932
2.864780,4248,2864792,932
2.865456,4249,2865468,932
2.866128,4250,2866140,932
2.866804,4251,2866816,932
2.867480,4252,2867492,932
2.868156,4253,2868168,931
2.868828,4254,2868840,931
2.869504,4255,2869516,932
2.870180,4256,2870192,931
2.870856,4257,2870868,932
2.871528,4258,2871540,932
2.872204,4259,2872216,932
2.872880,4260,2872892,932
2.873556,4261,2873568,932
2.874228,4262,2874240,931
2.874904,4263,2874916,932
2.875580,4264,2875592,931
2.876256,4265,2876268,932
2.876928,4266,2876940,931
2.877604,4267,2877616,931
2.878280,4268,2878292,932
2.878956,4269,2878968,932
2.879628,4270,2879640,932
2.880304,4271,2880316,932
2.880980,4272,2880992,932
2.881656,4273,2881668,932
2.882328,4274,2882340,932
2.883004,4275,2883016,932
2.883680,4276,2883692,932
2.884356,4277,2884368,932
2.885028,4278,2885040,932
2.885704,4279,2885716,932
2.886380,4280,2886392,932
2.887056,4281,2887068,931
2.887728,4282,2887740,931
2.888404,4283,2888416,932
2.889080,4284,2889092,931
2.889756,4285,2889768,932
2.890428,4286,2890440,931
2.891104,4287,2891116,931
2.891784,4288,2891796,931
2.892456,4289,2892468,931
2.893128,4290,2893140,932
2.893804,4291,2893816,932
2.894480,4292,2894492,932
2.895156,4293,2895168,932
2.895828,4294,2895840,931
2.896504,4295,2896516,932
2.897180,4296,2897192,932
2.897856,4297,2897868,932
2.898528,4298,2898540,931
2.899204,4299,2899216,931
2.899880,4300,2899892,932
2.900556,4301,2900568,932
2.901228,4302,2901240,931
2.901904,4303,2901916,932
2.902580,4304,2902592,932
2.903256,4305,2903268,932
2.903928,4306,2903940,932
2.904604,4307,2904616,931
2.905280,4308,2905292,932
2.905956,4309,2905968,931
2.906628,4310,2906640,932
2.907304,4311,2907316,932
2.907980,4312,2907992,931
2.908656,4313,2908668,932
2.909328,4314,2909340,931
2.910004,4315,2910016,931
2.910680,4316,2910692,932
2.911356,4317,2911368,932
2.912028,4318,2912040,931
2.912704,4319,2912716,932
2.913380,4320,2913392,932
2.914056,4321,2914068,932
2.914728,4322,2914740,932
2.915404,4323,2915416,932
2.916080,4324,2916092,932
2.916756,4325,2916768,932
2.917428,4326,2917440,932
2.918104,4327,2918116,932
2.918780,4328,2918792,931
2.919456,4329,2919468,932
2.920128,4330,2920140,932
2.920804,4331,2920816,932
2.921480,4332,2921492,931
2.922156,4333,2922168,932
2.922828,4334,2922840,932
2.923504,4335,2923516,931
2.924180,4336,2924192,932
2.924856,4337,2924868,931
2.925528,4338,2925540,932
2.926204,4339,2926216,932
2.926880,4340,2926892,932
2.927556,4341,2927568,932
2.928228,4342,2928240,932
2.928904,4343,2928916,931
2.929580,4344,2929592,932
2.930256,4345,2930268,931
2.930928,4346,2930940,931
2.931604,4347,2931616,931
2.932280,4348,2932292,931
2.932956,4349,2932968,932
2.933628,4350,2933640,932
2.934304,4351,2934316,932
2.934980,4352,2934992,931
2.935656,4353,2935668,932
2.936328,4354,2936340,932
2.937004,4355,2937016,932
2.937680,4356,2937692,932
2.938356,4357,2938368,932
2.939028,4358,2939040,932
2.939704,4359,2939716,932
2.940380,4360,2940392,931
2.941056,4361,2941068,932
2.941728,4362,2941740,932
2.942404,4363,2942416,932
2.943080,4364,2943092,932
2.943756,4365,2943768,931
2.944428,4366,2944440,931
2.945104,4367,2945116,931
2.945780,4368,2945792,931
2.946456,4369,2946468,932
2.947128,4370,2947140,932
2.947804,4371,2947816,932
2.948480,4372,2948492,932
2.949156,4373,2949168,932
2.949828,4374,2949840,931
2.950504,4375,2950516,932
2.951180,4376,2951192,931
2.951856,4377,2951868,932
2.952528,4378,2952540,932
2.953212,4379,2953224,932
2.953880,4380,2953892,932
2.954556,4381,2954568,931
2.955228,4382,2955240,931
2.955904,4383,2955916,931
2.956580,4384,2956592,931
2.957256,4385,2957268,931
2.957928,4386,2957940,932
2.958604,4387,2958616,932
2.959280,4388,2959292,932
2.959956,4389,2959968,932
2.960628,4390,2960640,932
2.961304,4391,2961316,932
2.961980,4392,2961992,932
2.962656,4393,2962668,932
2.963328,4394,2963340,932
2.964004,4395,2964016,931
2.964680,4396,2964692,931
2.965356,4397,2965368,932
2.966028,4398,2966040,932
2.966704,4399,2966716,931
2.967380,4400,2967392,931
2.968056,4401,2968068,931
2.968728,4402,2968740,931
2.969404,4403,2969416,932
2.970080,4404,2970092,931
2.970756,4405,2970768,931
2.971428,4406,2971440,932
2.972104,4407,2972116,931
2.972780,4408,2972792,931
2.973456,4409,2973468,931
2.974128,4410,2974140,932
2.974804,4411,2974816,932
2.975480,4412,2975492,932
2.976156,4413,2976168,931
2.976828,4414,2976840,931
2.977504,4415,2977516,932
2.978180,4416,2978192,932
2.978856,4417,2978868,931
2.979528,4418,2979540,932
2.980204,4419,2980216,931
2.980880,4420,2980892,932
2.981556,4421,2981568,932
2.982228,4422,2982240,932
2.982912,4423,2982924,931
2.983580,4424,2983592,931
2.984256,4425,2984268,931
2.984928,4426,2984940,931
2.985604,4427,2985616,931
2.986280,4428,2986292,931
2.986956,4429,2986968,932
2.987628,4430,2987640,932
2.988304,4431,2988316,931
2.988980,4432,2988992,931
2.989656,4433,2989668,932
2.990328,4434,2990340,931
2.991004,4435,2991016,931
2.991680,4436,2991692,932
2.992356,4437,2992368,932
2.993028,4438,2993040,932
2.993704,4439,2993716,932
2.994380,4440,2994392,932
2.995056,4441,2995068,932
2.995728,4442,2995740,932
2.996404,4443,2996416,932
2.997080,4444,2997092,932
2.997756,4445,2997768,932
2.998428,4446,2998440,932
2.999104,4447,2999116,931
2.999780,4448,2999792,932
3.000456,4449,3000468,932
3.001128,4450,3001140,931
3.001804,4451,3001816,932
3.002480,4452,3002492,931
3.003156,4453,3003168,932
3.003828,4454,3003840,931
3.004504,4455,3004516,931
3.005180,4456,3005192,932
3.005856,4457,3005868,931
3.006528,4458,3006540,932
3.007204,4459,3007216,932
3.007880,4460,3007892,931
3.008556,4461,3008568,931
3.009228,4462,3009240,931
3.009904,4463,3009916,931
3.010580,4464,3010592,931
3.011256,4465,3011268,932
3.011928,4466,3011940,931
3.012612,4467,3012624,931
3.013280,4468,3013292,931
3.013956,4469,3013968,932
3.014628,4470,3014640,932
3.015304,4471,3015316,931
3.015980,4472,3015992,931
3.016656,4473,3016668,932
3.017328,4474,3017340,932
3.018004,4475,3018016,932
3.018680,4476,3018692,932
3.019356,4477,3019368,932
3.020028,4478,3020040,931
3.020704,4479,3020716,932
3.021380,4480,3021392,932
3.022056,4481,3022068,932
3.022728,4482,3022740,931
3.023404,4483,3023416,932
3.024080,4484,3024092,932
3.024756,4485,3024768,931
3.025428,4486,3025440,932
3.026104,4487,3026116,931
3.026780,4488,3026792,932
3.027456,4489,3027468,932
3.028128,4490,3028140,932
3.028804,4491,3028816,932
3.029480,4492,3029492,931
3.030156,4493,3030168,931
3.030828,4494,3030840,931
3.031504,4495,3031516,931
3.032180,4496,3032192,932
3.032856,4497,3032868,932
3.033528,4498,3033540,931
3.034204,4499,3034216,931
3.034880,4500,3034892,932
3.035556,4501,3035568,932
3.036228,4502,3036240,932
3.036904,4503,3036916,931
3.037580,4504,3037592,932
3.038256,4505,3038268,931
3.038928,4506,3038940,932
3.039604,4507,3039616,931
3.040280,4508,3040292,931
3.040956,4509,3040968,932
3.041628,4510,3041640,932
3.042312,4511,3042324,931
3.042980,4512,3042992,932
3.043656,4513,3043668,932
3.044328,4514,3044340,932
3.045004,4515,3045016,932
3.045680,4516,3045692,932
3.046356,4517,3046368,931
3.047028,4518,3047040,931
3.047704,4519,3047716,932
3.048380,4520,3048392,932
3.049056,4521,3049068,932
3.049728,4522,3049740,931
3.050404,4523,3050416,932
3.051080,4524,3051092,931
3.051756,4525,3051768,932
3.052428,4526,3052440,931
3.053104,4527,3053116,931
3.053780,4528,3053792,932
3.054456,4529,3054468,932
3.055128,4530,3055140,932
3.055804,4531,3055816,932
3.056480,4532,3056492,932
3.057156,4533,3057168,932
3.057828,4534,3057840,932
3.058504,4535,3058516,932
3.059180,4536,3059192,931
3.059856,4537,3059868,932
3.060528,4538,3060540,931
3.061204,4539,3061216,931
3.061880,4540,3061892,932
3.062556,4541,3062568,932
3.063228,4542,3063240,931
3.063904,4543,3063916,931
3.064580,4544,3064592,931
3.065256,4545,3065268,931
3.065928,4546,3065940,932
3.066604,4547,3066616,931
3.067280,4548,3067292,931
3.067956,4549,3067968,932
3.068628,4550,3068640,932
3.069304,4551,3069316,931
3.069980,4552,3069992,931
3.070656,4553,3070668,932
3.071328,4554,3071340,931
3.072008,4555,3072020,932
3.072680,4556,3072692,932
3.073356,4557,3073368,932
3.074028,4558,3074040,932
3.074704,4559,3074716,931
3.075380,4560,3075392,932
3.076056,4561,3076068,932
3.076728,4562,3076740,932
3.077404,4563,3077416,932
3.078080,4564,3078092,931
3.078756,4565,3078768,932
3.079428,4566,3079440,932
3.080104,4567,3080116,932
3.080780,4568,3080792,932
3.081456,4569,3081468,931
3.082128,4570,3082140,931
3.082804,4571,3082816,932
3.083480,4572,3083492,931
3.084156,4573,3084168,931
3.084828,4574,3084840,932
3.085504,4575,3085516,932
3.086180,4576,3086192,931
3.086856,4577,3086868,932
3.087528,4578,3087540,931
3.088204,4579,3088216,932
3.088880,4580,3088892,932
3.089556,4581,3089568,932
3.090228,4582,3090240,932
3.090904,4583,3090916,931
3.091580,4584,3091592,932
3.092256,4585,3092268,931
3.092928,4586,3092940,932
3.093604,4587,3093616,932
3.094280,4588,3094292,932
3.094956,4589,3094968,931
3.095628,4590,3095640,931
3.096304,4591,3096316,931
3.096980,4592,3096992,932
3.097656,4593,3097668,932
3.098328,4594,3098340,932
3.099004,4595,3099016,932
3.099680,4596,3099692,931
3.100356,4597,3100368,932
3.101028,4598,3101040,932
3.101704,4599,3101716,932
3.102380,4600,3102392,932
3.103056,4601,3103068,932
3.103728,4602,3103740,932
3.104404,4603,3104416,932
3.105080,4604,3105092,932
3.105756,4605,3105768,931
3.106428,4606,3106440,932
3.107104,4607,3107116,932
3.107780,4608,3107792,932
3.108456,4609,3108468,931
3.109128,4610,3109140,932
3.109804,4611,3109816,932
3.110480,4612,3110492,931
3.111156,4613,3111168,931
3.111828,4614,3111840,932
3.112504,4615,3112516,932
3.113180,4616,3113192,931
3.113856,4617,3113868,932
3.114528,4618,3114540,931
3.115204,4619,3115216,932
3.115880,4620,3115892,932
3.116556,4621,3116568,932
3.117228,4622,3117240,932
3.117904,4623,3117916,931
3.118580,4624,3118592,932
3.119256,4625,3119268,932
3.119928,4626,3119940,931
3.120604,4627,3120616,932
3.121280,4628,3121292,931
3.121956,4629,3121968,932
3.122628,4630,3122640,931
3.123304,4631,3123316,931
3.123980,4632,3123992,931
3.124656,4633,3124668,932
3.125328,4634,3125340,931
3.126004,4635,3126016,931
3.126680,4636,3126692,931
3.127356,4637,3127368,931
3.128028,4638,3128040,931
3.128704,4639,3128716,931
3.129380,4640,3129392,931
3.130056,4641,3130068,932
3.130728,4642,3130740,932
3.131404,4643,3131416,932
3.132080,4644,3132092,932
3.132756,4645,3132768,932
3.133436,4646,3133448,932
3.134104,4647,3134116,931
3.134780,4648,3134792,932
3.135456,4649,3135468,931
3.136128,4650,3136140,931
3.136804,4651,3136816,932
3.137480,4652,3137492,932
3.138156,4653,3138168,931
3.138828,4654,3138840,931
3.139504,4655,3139516,932
3.140180,4656,3140192,931
3.140856,4657,3140868,931
3.141528,4658,3141540,932
3.142204,4659,3142216,931
3.142880,4660,3142892,931
3.143556,4661,3143568,931
3.144228,4662,3144240,932
3.144904,4663,3144916,931
3.145580,4664,3145592,932
3.146256,4665,3146268,932
3.146928,4666,3146940,932
3.147604,4667,3147616,932
3.148280,4668,3148292,932
3.148956,4669,3148968,931
3.149628,4670,3149640,931
3.150304,4671,3150316,931
3.150980,4672,3150992,931
3.151656,4673,3151668,931
3.152328,4674,3152340,932
3.153004,4675,3153016,932
3.153680,4676,3153692,932
3.154356,4677,3154368,932
3.155028,4678,3155040,932
3.155704,4679,3155716,931
3.156380,4680,3156392,932
3.157056,4681,3157068,932
3.157728,4682,3157740,931
3.158404,4683,3158416,931
3.159080,4684,3159092,931
3.159756,4685,3159768,932
3.160428,4686,3160440,931
3.161104,4687,3161116,931
3.161780,4688,3161792,931
3.162456,4689,3162468,932
3.163136,4690,3163148,932
3.163804,4691,3163816,932
3.164480,4692,3164492,932
3.165156,4693,3165168,931
3.165828,4694,3165840,932
3.166504,4695,3166516,931
3.167180,4696,3167192,931
3.167856,4697,3167868,932
3.168528,4698,3168540,932
3.169204,4699,3169216,932
3.169880,4700,3169892,931
3.170556,4701,3170568,932
3.171228,4702,3171240,932
3.171904,4703,3171916,931
3.172580,4704,3172592,932
3.173256,4705,3173268,932
3.173928,4706,3173940,931
3.174604,4707,3174616,931
3.175280,4708,3175292,931
3.175956,4709,3175968,932
3.176628,4710,3176640,932
3.177304,4711,3177316,932
3.177980,4712,3177992,932
3.178656,4713,3178668,931
3.179328,4714,3179340,932
3.180004,4715,3180016,931
3.180680,4716,3180692,931
3.181356,4717,3181368,931
3.182028,4718,3182040,931
